E(MeV)  pendfb7/Be9:2
1e-11  117.321795
1.02999e-11  115.605162
1.06087e-11  113.914292
1.09269e-11  112.247498
1.12544e-11  110.606228
1.1592e-11  108.988154
1.19395e-11  107.394717
1.22976e-11  105.823874
1.26662e-11  104.276954
1.30462e-11  102.751773
1.34372e-11  101.250218
1.38403e-11  99.7696312
1.42552e-11  98.3118666
1.46827e-11  96.8746946
1.51229e-11  95.4593348
1.55765e-11  94.0639316
1.60434e-11  92.6901325
1.65246e-11  91.335594
1.70199e-11  90.0018423
1.75304e-11  88.6870013
1.80559e-11  87.3921174
1.85975e-11  86.1156347
1.9155e-11  84.8586797
1.97295e-11  83.6195631
2.03209e-11  82.3993174
2.09305e-11  81.1962955
2.15579e-11  80.0118837
2.22045e-11  78.844107
2.28701e-11  77.6942944
2.35561e-11  76.5606529
2.42622e-11  75.4445263
2.49899e-11  74.3441399
2.5739e-11  73.2606154
2.6511e-11  72.192481
2.73057e-11  71.1406551
2.81247e-11  70.1038224
2.89678e-11  69.0827947
2.98367e-11  68.076272
3.07311e-11  67.0852377
3.16528e-11  66.1082671
3.26017e-11  65.1462402
3.35795e-11  64.1979112
3.45861e-11  63.2641095
3.56235e-11  62.3435754
3.66913e-11  61.4372023
3.77919e-11  60.5436763
3.89247e-11  59.6639237
4.00923e-11  58.7966194
4.12941e-11  57.9427255
4.25327e-11  57.1009039
4.38076e-11  56.272105
4.51216e-11  55.455059
4.64742e-11  54.6506036
4.78681e-11  53.8576084
4.9303e-11  53.0768055
5.07818e-11  52.3071556
5.23041e-11  51.5493366
5.38729e-11  50.8023388
5.54878e-11  50.0668633
5.71521e-11  49.34189
5.88653e-11  48.6280909
6.0631e-11  47.9244706
6.24484e-11  47.2317633
6.43215e-11  46.5489417
6.62496e-11  45.876661
6.82368e-11  45.2139859
7.02822e-11  44.5616006
7.23903e-11  43.918533
7.45603e-11  43.2854338
7.67967e-11  42.661389
7.90987e-11  42.0470458
8.14712e-11  41.4415089
8.39134e-11  40.8453552
8.64304e-11  40.2577571
8.90212e-11  39.6793121
9.16913e-11  39.1091761
9.44399e-11  38.5478981
9.72725e-11  37.9947105
1.00188e-10  37.4501246
1.03193e-10  36.9134762
1.06287e-10  36.3850326
1.09475e-10  35.8642664
1.12756e-10  35.3516912
1.16139e-10  34.8464209
1.1962e-10  34.3491975
1.23208e-10  33.8590714
1.26901e-10  33.3766753
1.30707e-10  32.9012948
1.34626e-10  32.4332743
1.38664e-10  31.9720432
1.4282e-10  31.5181697
1.47104e-10  31.0708334
1.51513e-10  30.6305612
1.56058e-10  30.1966992
1.60736e-10  29.7696725
1.65557e-10  29.3489056
1.7052e-10  28.9347502
1.75635e-10  28.526646
1.80899e-10  28.1250637
1.86325e-10  27.7293736
1.91911e-10  27.3399041
1.97667e-10  26.9561896
2.03592e-10  26.5785839
2.09699e-10  26.2065353
2.15985e-10  25.8404359
2.22463e-10  25.4797488
2.29132e-10  25.1248132
2.36004e-10  24.7751664
2.43079e-10  24.4310883
2.5037e-10  24.0921388
2.57875e-10  23.7586523
2.6561e-10  23.4301244
2.73572e-10  23.1069149
2.81777e-10  22.7885451
2.90224e-10  22.4753034
2.98929e-10  22.1667774
3.0789e-10  21.8632625
3.17125e-10  21.5643113
3.26631e-10  21.2702535
3.36428e-10  20.9806318
3.46513e-10  20.6957538
3.56906e-10  20.4152045
3.67605e-10  20.1392568
3.78631e-10  19.8675192
3.89981e-10  19.6002711
4.01678e-10  19.3371143
4.13719e-10  19.0783199
4.26128e-10  18.823508
4.38901e-10  18.572941
4.53974e-10  18.2914205
4.69564e-10  18.0150831
4.8569e-10  17.7438483
5.02369e-10  17.4776373
5.19621e-10  17.2163726
5.37466e-10  16.959978
5.55923e-10  16.7083785
5.75015e-10  16.4615006
5.94762e-10  16.2192718
6.15187e-10  15.9816211
6.36313e-10  15.7484785
6.58165e-10  15.5197752
6.80768e-10  15.2954436
7.04146e-10  15.0754174
7.28328e-10  14.8596311
7.5334e-10  14.6480206
7.79211e-10  14.4405225
8.0597e-10  14.2370748
8.33648e-10  14.0376164
8.62277e-10  13.8420871
8.91889e-10  13.6504276
9.22518e-10  13.4625799
9.54199e-10  13.2784867
9.86967e-10  13.0980915
1.020861e-09  12.9213389
1.05592e-09  12.7481741
1.092181e-09  12.5785436
1.129689e-09  12.4123941
1.168484e-09  12.2496736
1.208612e-09  12.0903307
1.250117e-09  11.9343146
1.293048e-09  11.7815755
1.337454e-09  11.6320641
1.383384e-09  11.4857318
1.430892e-09  11.3425309
1.480031e-09  11.2024141
1.530857e-09  11.0653347
1.583429e-09  10.9312468
1.637807e-09  10.800105
1.694052e-09  10.6718643
1.752228e-09  10.5464805
1.812403e-09  10.4239098
1.874643e-09  10.3041089
1.939022e-09  10.1870349
2.005611e-09  10.0726455
2.083279e-09  9.94708577
2.163917e-09  9.82486865
2.247716e-09  9.70582312
2.334719e-09  9.5900014
2.425132e-09  9.47723935
2.519002e-09  9.36758393
2.616552e-09  9.26087846
2.717832e-09  9.15716523
2.823082e-09  9.05629301
2.932355e-09  8.95830227
3.045912e-09  8.86304606
3.163811e-09  8.77055916
3.286332e-09  8.68070212
3.413536e-09  8.59350641
3.545728e-09  8.50883655
3.682973e-09  8.42672036
3.825598e-09  8.34702811
3.990519e-09  8.26132631
4.162549e-09  8.17852971
4.341995e-09  8.0985678
4.529177e-09  8.02137067
4.724429e-09  7.94686882
4.928097e-09  7.87499403
5.140546e-09  7.80567712
5.362154e-09  7.73885034
5.616922e-09  7.66815011
5.883899e-09  7.60026584
6.163457e-09  7.53516104
6.456412e-09  7.47269862
6.763171e-09  7.41283999
7.08463e-09  7.35545361
7.452692e-09  7.2956084
7.839876e-09  7.23852338
8.247174e-09  7.18409233
8.675632e-09  7.13221054
9.12635e-09  7.08277537
9.641004e-09  7.03187322
1.0184861e-08  6.98358389
1.0759206e-08  6.93781728
1.1414114e-08  6.89119086
1.2108886e-08  6.84719299
1.2845949e-08  6.80568601
1.3685637e-08  6.76382231
1.4579954e-08  6.7245213
1.5598546e-08  6.68523851
1.6688301e-08  6.64851721
1.7929863e-08  6.61212135
1.926345e-08  6.57825864
2.0783948e-08  6.54495946
2.2519508e-08  6.51245655
2.5268741e-08  6.47012859
2.53e-08  6.46970035
2.752837e-08  6.4416854
3.0079966e-08  6.41471964
3.3006792e-08  6.38893917
3.6371267e-08  6.36444839
4.0248565e-08  6.34132268
4.4916755e-08  6.31879867
5.0338841e-08  6.29790253
5.689267e-08  6.27798129
6.4845994e-08  6.25923067
7.4536371e-08  6.2418047
8.6402653e-08  6.22580046
1.01433412e-07  6.21091956
1.21106371e-07  6.19705281
1.46436073e-07  6.18474062
1.80841467e-07  6.17363377
2.30999989e-07  6.16339829
3.05203765e-07  6.15426937
4.1709195e-07  6.14663676
6.04694075e-07  6.14030356
9.53892859e-07  6.13541899
4.36157631e-06  6.13025308
1.95979295e-05  6.14301427
3.32519408e-05  6.18906395
8.21340905e-05  6.42738938
0.000104060119  6.46247868
0.000379467631  6.46415341
0.0104272284  6.19689112
0.0283375696  5.92269666
0.0521361418  5.60417861
0.1  5.06373882
0.25  3.97776779
0.5  3.28527793
0.55  3.32841037
0.57  3.44377913
0.58  3.57972095
0.59  3.85482087
0.6  4.48267014
0.61  5.98918542
0.615  7.09514787
0.6175  7.53765006
0.62  7.74734193
0.6220625  7.69777826
0.623  7.6112236
0.625  7.32210822
0.63  6.33286292
0.64  4.83357961
0.65  4.14808315
0.66  3.82424269
0.66715  3.69228722
0.67  3.65287498
0.7  3.44991591
0.74  3.37610403
0.75  3.36689108
0.795  3.37575214
0.8  3.48343267
0.805  4.02796619
0.809921875  5.77944995
0.81  5.79536564
0.81015625  5.7836433
0.81203125  5.4672101
0.815  4.58857287
0.82  3.93957254
0.825  3.71569784
0.83  3.6142987
0.9  3.40404894
1  3.27428448
1.05  3.18389035
1.11551908  3.04149911
1.2  2.8355974
1.38376397  2.36575676
1.5  2.09592737
1.7488  1.70949211
1.8  1.66837829
1.88  1.6283223
2  1.61811947
2.1  1.65499062
2.2  1.74555438
2.25  1.81458236
2.44  2.19935815
2.55  2.53618018
2.6  2.7998711
2.65  3.23823702
2.7  3.81483572
2.725  3.97071591
2.74960938  3.94722834
2.8  3.61054652
2.9  3.02962979
3  2.69972418
3.1  2.42322772
3.2  2.20952013
3.3  2.03292066
3.4  1.89381241
3.5  1.77691487
3.6  1.68620673
3.7  1.60720449
3.85  1.5022
4  1.40544303
4.15  1.2936751
4.2  1.26227625
4.3  1.40200998
4.4  1.39897835
4.5  1.36190575
4.8  1.27743289
5  1.31996898
5.5  1.22001067
5.98323868  1.19445062
6.5  1.16000029
7.1  1.13000202
7.5  1.1200054
8.4  1.15999309
9.1  1.13999991
9.5  1.14999079
10  1.13999803
12  1.0589886
14  1.01074334
16.5  0.892045278
17.35  0.904490283
18  0.922992727
20  0.895251441
