E(MeV)  pendfb7/C:2
1e-11  78.9477447
1.02999e-11  77.793472
1.06087e-11  76.6565355
1.09269e-11  75.5358012
1.12544e-11  74.4322423
1.1592e-11  73.3442933
1.19395e-11  72.2729234
1.22976e-11  71.2167591
1.26662e-11  70.1766938
1.30462e-11  69.1512591
1.34372e-11  68.1417235
1.38403e-11  67.1463004
1.42552e-11  66.1662361
1.46827e-11  65.2000317
1.51229e-11  64.2485071
1.55765e-11  63.3104148
1.60434e-11  62.3868624
1.65246e-11  61.4762743
1.70199e-11  60.5796767
1.75304e-11  59.6958083
1.80559e-11  58.8253725
1.85975e-11  57.9673234
1.9155e-11  57.1224183
1.97295e-11  56.2895216
2.03209e-11  55.4693274
2.09305e-11  54.6607284
2.15579e-11  53.8646566
2.22045e-11  53.0797844
2.28701e-11  52.3070051
2.35561e-11  51.5451136
2.42622e-11  50.7950131
2.49899e-11  50.0555108
2.5739e-11  49.3273605
2.6511e-11  48.6095732
2.73057e-11  47.9027661
2.81247e-11  47.2060552
2.89678e-11  46.519986
2.98367e-11  45.8436851
3.07311e-11  45.1778131
3.16528e-11  44.5214129
3.26017e-11  43.8750756
3.35795e-11  43.2379642
3.45861e-11  42.610636
3.56235e-11  41.9922447
3.66913e-11  41.3833904
3.77919e-11  40.7831906
3.89247e-11  40.1922672
4.00923e-11  39.6097305
4.12941e-11  39.0362264
4.25327e-11  38.4708564
4.38076e-11  37.9142586
4.51216e-11  37.3655804
4.64742e-11  36.8253841
4.78681e-11  36.2929108
4.9303e-11  35.7686519
5.07818e-11  35.2519098
5.23041e-11  34.7431394
5.38729e-11  34.2416629
5.54878e-11  33.7479509
5.71521e-11  33.2613187
5.88653e-11  32.7822172
6.0631e-11  32.3099784
6.24484e-11  31.8450949
6.43215e-11  31.3868774
6.62496e-11  30.9357654
6.82368e-11  30.4911314
7.02822e-11  30.0534344
7.23903e-11  29.6220221
7.45603e-11  29.197331
7.67967e-11  28.7787481
7.90987e-11  28.3667072
8.14712e-11  27.9606081
8.39134e-11  27.5608374
8.64304e-11  27.1668402
8.90212e-11  26.7790171
9.16913e-11  26.396802
9.44399e-11  26.0205631
9.72725e-11  25.6497856
1.00188e-10  25.2848124
1.03193e-10  24.925198
1.06287e-10  24.5711216
1.09475e-10  24.2222299
1.12756e-10  23.8788667
1.16139e-10  23.5404385
1.1962e-10  23.2074422
1.23208e-10  22.8792417
1.26901e-10  22.5562607
1.30707e-10  22.2380207
1.34626e-10  21.9247522
1.38664e-10  21.6160733
1.4282e-10  21.312364
1.47104e-10  21.0130753
1.51513e-10  20.7185597
1.56058e-10  20.4283795
1.60736e-10  20.1428192
1.65557e-10  19.8614936
1.7052e-10  19.5846378
1.75635e-10  19.3118772
1.80899e-10  19.0435261
1.86325e-10  18.7791638
1.91911e-10  18.5190094
1.97667e-10  18.2627518
2.03592e-10  18.0106271
2.09699e-10  17.762267
2.15985e-10  17.5179327
2.22463e-10  17.277266
2.29132e-10  17.0404929
2.36004e-10  16.8073047
2.43079e-10  16.5778877
2.5037e-10  16.3519484
2.57875e-10  16.1297095
2.6561e-10  15.9108345
2.73572e-10  15.6955631
2.81777e-10  15.483576
2.90224e-10  15.2750652
2.98929e-10  15.0697557
3.0789e-10  14.867844
3.17125e-10  14.6690321
3.26631e-10  14.473539
3.37848e-10  14.2538859
3.4945e-10  14.0382722
3.61451e-10  13.8266354
3.73864e-10  13.6189137
3.86703e-10  13.4150469
3.99983e-10  13.2149754
4.13719e-10  13.0186408
4.27926e-10  12.8259858
4.42622e-10  12.6369538
4.57822e-10  12.4514894
4.73545e-10  12.269538
4.89807e-10  12.0910461
5.06628e-10  11.9159609
5.24026e-10  11.7442305
5.42022e-10  11.5758042
5.60636e-10  11.4106316
5.79889e-10  11.2486636
5.99803e-10  11.0898517
6.20402e-10  10.9341482
6.41707e-10  10.7815062
6.63744e-10  10.6318796
6.86539e-10  10.485223
7.10115e-10  10.3414918
7.34502e-10  10.200642
7.59726e-10  10.0626303
7.85816e-10  9.92741408
8.12802e-10  9.79495149
8.40715e-10  9.6652012
8.69587e-10  9.53812253
8.9945e-10  9.41367541
9.30338e-10  9.29182035
9.62287e-10  9.17251845
9.95334e-10  9.05573133
1.029515e-09  8.94142119
1.064871e-09  8.82955072
1.10144e-09  8.72008313
1.139265e-09  8.61298211
1.178389e-09  8.50821184
1.218857e-09  8.40573693
1.260715e-09  8.30552244
1.30401e-09  8.20753387
1.348791e-09  8.11173712
1.395111e-09  8.01809847
1.443021e-09  7.92658459
1.492577e-09  7.83716252
1.543834e-09  7.74979964
1.60362e-09  7.65391606
1.665692e-09  7.56059537
1.730197e-09  7.46970697
1.797168e-09  7.38129089
1.866765e-09  7.29521951
1.939022e-09  7.21153162
2.014112e-09  7.13010319
2.092072e-09  7.05096969
2.173089e-09  6.97401282
2.257203e-09  6.8992632
2.344615e-09  6.82660834
2.435368e-09  6.75607562
2.529679e-09  6.68755695
2.627596e-09  6.62107526
2.729351e-09  6.55652814
2.834997e-09  6.49393481
2.957213e-09  6.42657833
3.084697e-09  6.36149297
3.217678e-09  6.29862416
3.356391e-09  6.23791767
3.501084e-09  6.17931962
3.652015e-09  6.12277646
3.809452e-09  6.06823501
3.973676e-09  6.01564245
4.14498e-09  5.96494633
4.341995e-09  5.91129879
4.548293e-09  5.8598344
4.764478e-09  5.81044554
4.990849e-09  5.76310294
5.228069e-09  5.71770333
5.476466e-09  5.67421602
5.76098e-09  5.62885093
6.060276e-09  5.58558071
6.37512e-09  5.54432359
6.706321e-09  5.50499933
7.08463e-09  5.46448164
7.484147e-09  5.42605502
7.906334e-09  5.38959929
8.352189e-09  5.35504531
8.860582e-09  5.31983795
9.399922e-09  5.28660973
1.0014358e-08  5.2530807
1.0668767e-08  5.22158866
1.1366142e-08  5.19199739
1.216021e-08  5.16241522
1.3009753e-08  5.13474659
1.3977392e-08  5.10731063
1.5017271e-08  5.08174937
1.620261e-08  5.05659289
1.7555294e-08  5.03200926
1.9101527e-08  5.00814023
2.0783948e-08  4.98616531
2.2710406e-08  4.96495518
2.5268741e-08  4.94171748
2.53e-08  4.94146212
2.7879396e-08  4.92232761
3.0981645e-08  4.90345302
3.457502e-08  4.88573351
3.8748713e-08  4.86918394
4.3793573e-08  4.8532936
4.9915706e-08  4.83822792
5.7374949e-08  4.82413143
6.6509111e-08  4.8111219
7.7749613e-08  4.79932263
9.2048813e-08  4.78860016
1.1083327e-07  4.77892022
1.36298464e-07  4.7702061
1.72638996e-07  4.76226273
2.26178246e-07  4.75521293
3.0909555e-07  4.74911471
4.46231054e-07  4.74400239
7.00962111e-07  4.73981447
1.24691796e-06  4.73660115
0.133668145  4.30599544
0.145  4.28383746
0.14875  4.30714841
0.15  4.34027728
0.151  4.39399675
0.152  4.4761528
0.1529  4.51947714
0.15395  4.45749762
0.155  4.37340201
0.156  4.32128028
0.158  4.27115828
0.16125  4.23935707
0.172398403  4.19552436
0.268036206  3.93788883
0.364952992  3.70006504
0.469225276  3.46878717
0.565519075  3.27451974
0.684523069  3.05644403
0.8112866  2.84864065
0.938050131  2.66235464
1.06785599  2.49077427
1.19157719  2.34338244
1.31834073  2.20674786
1.44510426  2.08326386
1.59722049  1.94951233
1.725  1.85013908
1.736  1.86238677
1.745  1.84084602
1.755  1.82801783
2.0125  1.6647445
2.025  1.65914954
2.0495  1.68437801
2.053  1.70210332
2.056  1.72796752
2.058  1.75440536
2.06  1.79201682
2.0615  1.83159416
2.063  1.88393041
2.064  1.92983256
2.065  1.98737257
2.066  2.06026181
2.067  2.15355704
2.068  2.27503567
2.069  2.43479612
2.07  2.64764613
2.071  2.93339342
2.072  3.31684888
2.073  3.82244758
2.074  4.45382077
2.075  5.15287974
2.076  5.75378588
2.0769375  6.01963893
2.077  6.02648795
2.0771875  6.01092969
2.078  5.8594765
2.079  5.3686843
2.08  4.7669421
2.081  4.20252563
2.082  3.73192569
2.083  3.35901219
2.084  3.06822996
2.085  2.84173845
2.086  2.66397953
2.087  2.5228381
2.088  2.40930668
2.089  2.31720172
2.09  2.24118028
2.091  2.17797397
2.092  2.12479804
2.0935  2.06004379
2.095  2.00752794
2.097  1.95302427
2.099  1.91059203
2.102  1.86253119
2.104  1.83770457
2.108  1.79969419
2.112  1.77216754
2.12  1.73474874
2.14  1.68633762
2.16  1.66110961
2.18  1.64450329
2.22  1.62190109
2.28  1.60039789
2.34  1.58779616
2.4  1.58289684
2.46  1.58659694
2.52  1.6003972
2.56  1.61649626
2.6  1.63949791
2.64  1.67090065
2.68  1.71319931
2.71  1.75488801
2.74  1.80590151
2.76  1.84780868
2.785  1.91201897
2.8  1.96115714
2.806  1.99044049
2.808  2.00732199
2.81  2.03963437
2.811  2.07334375
2.812  2.14527094
2.8128125  2.29405442
2.81290625  2.31822912
2.813  2.35641764
2.81309375  2.41390344
2.81325  2.53640871
2.8138125  3.00660141
2.81390625  3.09560628
2.81396875  3.16707498
2.81403125  3.25279216
2.814125  3.40699686
2.81478125  4.64880718
2.81484375  4.7558143
2.81490625  4.84042824
2.81495313  4.87793501
2.81498438  4.88649543
2.81503125  4.87197482
2.81507813  4.82585912
2.815125  4.75398244
2.8151875  4.63201422
2.8158125  3.21013376
2.81590625  3.01339892
2.81596875  2.90259074
2.81601563  2.83502909
2.8160625  2.78146034
2.816125  2.72827643
2.81621875  2.6715223
2.816875  2.35287023
2.817  2.30520349
2.817125  2.27570935
2.818  2.16244922
2.819  2.11018783
2.82  2.08692287
2.822  2.07000064
2.824  2.06743174
2.835  2.10293263
2.845  2.15222562
2.855  2.21022792
2.865  2.27743556
2.875  2.3555468
2.885  2.44705987
2.895  2.55487298
2.905  2.68188031
2.915  2.82965533
2.932  3.10658927
2.936  3.16314074
2.94  3.20674931
2.944  3.22933404
2.948  3.22071184
2.952  3.17010301
2.956  3.06795393
2.96  2.91000547
2.964  2.7008748
2.968  2.45552595
2.976  1.94610212
2.98  1.72392042
2.984  1.53994802
2.988  1.39661656
2.992  1.29115207
2.996  1.2178818
3  1.17073715
3.01  1.12976751
3.02  1.15040713
3.03  1.19763638
3.06  1.37246985
3.08  1.48246218
3.1  1.58256581
3.12  1.67437039
3.15  1.80013502
3.2  1.99037102
3.24  2.12847017
3.28  2.25486794
3.32  2.36776449
3.36  2.46436738
3.39  2.52388301
3.42  2.57286988
3.45  2.60828301
3.48  2.63236927
3.52  2.64416413
3.56  2.6352593
3.6  2.60806266
3.64  2.56536372
3.7  2.47946632
3.76  2.3761726
3.94  2.03668644
4  1.93209087
4.04  1.87139407
4.07  1.83499727
4.09  1.8180014
4.11  1.80980252
4.125  1.812378
4.14  1.8233053
4.16  1.85721395
4.18  1.91751359
4.2  2.0042993
4.23  2.15583574
4.24  2.19872395
4.25  2.23181087
4.26  2.25270753
4.27  2.2608107
4.28  2.25671987
4.3  2.21943445
4.32  2.15845446
4.37  1.98539753
4.4  1.89329557
4.43  1.81442599
4.46  1.74539168
4.5  1.66769103
4.54  1.6014869
4.58  1.54378583
4.64  1.46878325
4.7  1.40358079
4.85  1.260016
4.9  1.22306917
4.91940625  1.23903635
4.93423047  1.34038873
4.93436524  1.34586373
4.93446631  1.35729134
4.9345625  1.37716376
4.9346875  1.41494391
4.935375  1.66936557
4.9355  1.70932144
4.93565  1.74830312
4.936475  1.91973933
4.936625  1.94529256
4.9367875  1.96029182
4.93691875  1.9628886
4.938275  1.94320902
4.93845  1.93443663
4.938625  1.91219325
4.9394125  1.75787168
4.93961563  1.72926345
4.94308438  1.42826683
4.94335313  1.41351537
4.9481  1.27888382
4.9546  1.23021512
4.9584  1.20741454
5  1.12118415
5.001  1.13169055
5.03  1.11764568
5.053  1.1154768
5.1  1.09183191
5.12  1.04902622
5.15  1.06297238
5.18  1.04319132
5.2  1.02079442
5.23  1.00477368
5.28  0.965460568
5.3  0.957143691
5.33  0.933283315
5.335  0.962197439
5.34  0.923801885
5.34034375  0.930917545
5.35976563  1.45265821
5.36002344  1.46600508
5.36028125  1.49241477
5.36182813  1.67641046
5.362  1.69194233
5.36225  1.70283681
5.37  1.86160719
5.371  1.84380078
5.378  1.6302837
5.38  1.55489346
5.39  1.33816329
5.4  1.20316967
5.41  1.13397334
5.42  1.09870517
5.43  1.07008304
5.44  1.06029024
5.46  1.01656109
5.5  0.990583276
5.55  0.97297263
5.553  0.981548494
5.6  0.958872885
5.65  0.941956247
5.7  0.920082495
5.8  0.909850242
5.9  0.885366362
6.05  0.872722081
6.0546875  0.876007661
6.125  0.890781481
6.16  0.914122979
6.174  0.938814665
6.1812  0.947701357
6.2  0.980958826
6.21  1.02374555
6.22  1.03897959
6.23  1.08560401
6.25  1.23861853
6.285  2.10507537
6.295  2.37980005
6.30296875  2.26264972
6.31  2.01115929
6.32  1.59750547
6.33  1.36884969
6.34  1.19356181
6.35  1.14712842
6.36  1.22273576
6.37  1.06646623
6.39  0.889776396
6.4  0.872542537
6.41  0.84742006
6.42  0.825749079
6.43  0.841198807
6.44  0.827826674
6.45  0.833635425
6.47  0.828118623
6.49  0.830295396
6.51  0.804254981
6.54  0.705623329
6.5565  0.611318618
6.57  0.530653302
6.58  0.50154253
6.59  0.505045952
6.6  0.514160791
6.62  0.576774649
6.64  0.592400079
6.658  0.735848333
6.665125  0.682294406
6.67  0.670220127
6.68  0.661390294
6.7  0.655550632
6.81  0.645746751
6.92  0.606041937
7  0.573643297
7.053  0.572616932
7.1  0.569164455
7.14  0.582821348
7.18  0.602642766
7.2  0.639842023
7.225  0.676406841
7.25  0.746815064
7.27  0.822804901
7.28  0.884238693
7.34  1.33221054
7.35  1.42916889
7.36  1.42252158
7.37  1.46355213
7.40125  1.41279856
7.42  1.39797561
7.47  1.37141649
7.529  1.37807174
7.553  1.35516412
7.62  1.32634327
7.649375  1.33680719
7.667  1.39076475
7.68  1.41515085
7.698  1.52478509
7.7  1.53056114
7.725  1.79876839
7.745  1.9861031
7.767  1.84315612
7.789  1.6834974
7.81  1.58093897
7.819  1.58208314
7.86  1.52175764
7.8864  1.49192395
7.888  1.47519852
7.897  1.47153204
7.93  1.43177664
7.936  1.41002413
8  1.35097954
8.005  1.35376552
8.01  1.3065386
8.014  1.33339269
8.044  1.29762118
8.053  1.33034861
8.079  1.32223426
8.08  1.31532351
8.10001563  1.31839783
8.101  1.33052395
8.105  1.31818982
8.109  1.30018817
8.12  1.2818486
8.131  1.24810743
8.138  1.23292585
8.16  1.15595587
8.166  1.11617464
8.2  0.973172594
8.21  0.949137161
8.24  0.920965526
8.2958  0.860013467
8.2962  0.857343519
8.32  0.85091063
8.33  0.837475506
8.4  0.797566343
8.426  0.800116843
8.448  0.785204947
8.45  0.772116614
8.48  0.77615732
8.4995  0.755965693
8.5  0.750359158
8.52  0.757091775
8.553  0.739481026
8.611  0.756314357
8.7  0.745064358
8.708  0.737237094
8.75  0.718211733
8.768  0.716072299
8.8  0.706826326
8.833  0.688984368
8.85  0.677240884
8.885  0.668269315
8.92  0.638292503
9  0.630903458
9.005  0.644161675
9.02  0.642590583
9.0309375  0.650650082
9.045  0.653815112
9.053  0.669079697
9.067  0.668498812
9.08  0.685597193
9.149  0.723364255
9.163  0.73670763
9.2065  0.732675978
9.25  0.724836448
9.254  0.733171241
9.3  0.716961122
9.36  0.699584148
9.4  0.681409457
9.45  0.671512649
9.5  0.669316798
9.522  0.669717033
9.553  0.664561384
9.558875  0.668421245
9.6  0.671502971
9.63  0.680200811
9.64  0.687430953
9.692  0.683030496
9.7  0.685382887
9.726  0.670389006
9.74  0.676176732
9.75  0.669666091
9.8  0.684500022
9.821  0.683794242
9.83  0.686267739
9.9  0.671828282
9.917  0.674059757
9.921  0.667666529
10  0.656760215
10.05  0.643252796
10.053  0.637067187
10.17  0.642052022
10.3  0.628653269
10.375  0.635961423
10.4  0.643331993
10.478  0.678142163
10.5  0.690861456
10.506  0.690932144
10.536  0.701689859
10.55  0.698593651
10.553  0.708213414
10.62  0.725492754
10.69  0.750868191
10.7  0.752647763
10.75  0.786163804
10.8  0.812857401
10.9  0.873378293
10.94  0.887381853
11  0.862048017
11.004  0.856378124
11.053  0.866895254
11.096  0.863707574
11.100625  0.86874477
11.17  0.886836931
11.235  0.877699824
11.3  0.873057943
11.4  0.872787507
11.5  0.864421413
11.553  0.851470693
11.708  0.838496829
11.75  0.853005228
11.751  0.849054235
11.799125  0.857623491
11.9  0.904734295
11.909  0.901012089
11.917  0.91248009
12  0.899482243
12.05  0.910005176
12.053  0.913265769
12.088  0.910351594
12.1  0.910946384
12.193  0.873109601
12.3  0.84849165
12.4  0.839249468
12.7  0.887240811
12.738  0.889525175
12.792  0.906700911
12.9  0.919481927
12.99  0.943610289
13.055  0.936798304
13.12  0.935606072
13.25  0.924852042
13.28  0.914554418
13.3  0.915595129
13.5  0.905304201
13.54  0.91007955
13.553  0.909440571
13.57  0.9094448
13.587  0.90943117
13.646  0.89560221
13.767  0.880850288
13.822  0.860057074
13.965  0.841296696
14  0.819287155
14.06825  0.825711937
14.25  0.837248957
14.419  0.824402661
14.486  0.840644164
14.566  0.854621408
14.694  0.894518
14.75  0.898913375
14.767  0.897367443
14.888  0.913514542
14.892  0.918971137
14.909  0.921886181
14.962  0.918821584
14.996  0.922874079
15  0.917712445
15.093  0.941575354
15.2555  0.95889855
15.448  0.985385037
15.966  1.02562256
15.97  1.0311389
15.99  1.02853303
16  1.03370834
16.064  1.01698599
16.256  0.983667549
16.347  0.955098861
16.532  0.946909405
16.695  0.919514509
16.974  0.89658933
17.074  0.899211917
17.1305  0.888656458
17.3  0.872395038
17.301  0.883658644
17.467  0.873342127
17.616  0.887304014
17.687  0.889656219
17.9  0.906245423
17.901  0.908401098
18  0.917544871
18.053  0.929466157
18.087  0.923440829
18.158  0.935771924
18.46  0.922826954
18.52  0.933762868
18.7  0.952837364
18.833  0.95696786
19.053  0.973137456
19.185  0.977735676
19.553  0.981842967
19.6  0.979542364
19.892  0.991511024
19.9987344  0.980843107
19.9993673  0.981318363
19.9996837  0.985614681
20.000328  1.01116503
20.0006459  1.01544568
20.0012817  1.01593951
20.2712998  1.00315078
21  0.937008709
22  0.917003084
23  0.922001261
24  0.936996744
24.3615026  0.932286541
25  0.918002203
27.05867  0.903173459
31.4373558  0.842115549
36  0.785268918
41.5784383  0.706533352
45.6348713  0.654480922
49.6913043  0.606809642
53  0.570482115
57  0.531048989
61  0.495432186
65  0.463447273
69  0.434725454
74  0.402354836
78  0.378856243
91  0.311831075
99  0.267296886
106  0.231236304
108  0.222135932
110  0.214000175
112  0.207131964
118  0.19013282
124  0.171591477
128  0.160278275
132  0.149968271
136  0.14059246
140  0.132000046
144  0.124000542
150  0.113000568
