E(MeV)  pendfb7/Cr52:2
1e-11  23.8239697
1.02999e-11  23.4791924
1.06087e-11  23.1396458
1.09269e-11  22.8049911
1.12544e-11  22.475519
1.1592e-11  22.150762
1.19395e-11  21.8310094
1.22976e-11  21.5158512
1.26662e-11  21.205554
1.30462e-11  20.8996798
1.34372e-11  20.5986068
1.38403e-11  20.3018021
1.42552e-11  20.0096374
1.46827e-11  19.7216658
1.51229e-11  19.4381316
1.55765e-11  19.158663
1.60434e-11  18.88359
1.65246e-11  18.6124433
1.70199e-11  18.3455283
1.75304e-11  18.0824695
1.80559e-11  17.8234763
1.85975e-11  17.5682374
1.9155e-11  17.3169779
1.97295e-11  17.0693601
2.03209e-11  16.8255904
2.09305e-11  16.5853396
2.15579e-11  16.3488844
2.22045e-11  16.1158305
2.28701e-11  15.8864432
2.35561e-11  15.6603645
2.42622e-11  15.4378624
2.49899e-11  15.2185831
2.5739e-11  15.0027499
2.6511e-11  14.7900696
2.73057e-11  14.580725
2.81247e-11  14.3744542
2.89678e-11  14.1714185
2.98367e-11  13.9713595
3.07311e-11  13.7744723
3.16528e-11  13.5804739
3.26017e-11  13.3895389
3.35795e-11  13.2014199
3.45861e-11  13.0162812
3.56235e-11  12.8338731
3.66913e-11  12.6543723
3.77919e-11  12.4775186
3.89247e-11  12.303495
4.00923e-11  12.1320394
4.12941e-11  11.9633417
4.25327e-11  11.7971373
4.38076e-11  11.6336138
4.51216e-11  11.4725205
4.64742e-11  11.3140222
4.78681e-11  11.157896
4.9303e-11  11.0042859
5.07818e-11  10.8529871
5.23041e-11  10.7041327
5.38729e-11  10.5575241
5.54878e-11  10.4132986
5.71521e-11  10.2712559
5.88653e-11  10.1315274
6.0631e-11  9.99391789
6.24484e-11  9.85857069
6.43215e-11  9.72528473
6.62496e-11  9.59418757
6.82368e-11  9.46509649
7.02822e-11  9.33814436
7.23903e-11  9.21314163
7.45603e-11  9.09021441
7.67967e-11  8.96918481
7.9434e-11  8.83329243
8.21619e-11  8.6999013
8.48054e-11  8.57703922
8.77177e-11  8.44838889
9.07301e-11  8.32212937
9.38459e-11  8.19822383
9.70687e-11  8.07663606
1.00402e-10  7.95733048
1.0385e-10  7.8402721
1.07417e-10  7.72542655
1.11105e-10  7.61276001
1.14921e-10  7.50223927
1.18868e-10  7.39383164
1.2295e-10  7.28750501
1.27172e-10  7.18322778
1.31539e-10  7.08096891
1.36056e-10  6.98069783
1.40729e-10  6.88238451
1.45562e-10  6.7859994
1.50561e-10  6.69151342
1.55731e-10  6.59889797
1.61079e-10  6.50812491
1.66611e-10  6.41916655
1.72332e-10  6.33199563
1.78251e-10  6.24658532
1.84372e-10  6.16290919
1.90704e-10  6.08094124
1.97253e-10  6.00065586
2.04027e-10  5.92202781
2.11033e-10  5.84503222
2.18281e-10  5.76964461
2.25777e-10  5.69584082
2.3353e-10  5.62359706
2.4155e-10  5.55288984
2.49845e-10  5.48369601
2.58425e-10  5.41599275
2.673e-10  5.3497575
2.7648e-10  5.28496801
2.85974e-10  5.22160232
2.95795e-10  5.15963873
3.05953e-10  5.0990558
3.1646e-10  5.03983234
3.27328e-10  4.98194741
3.38569e-10  4.9253803
3.50196e-10  4.87011051
3.63757e-10  4.80944489
3.77837e-10  4.75039215
3.92469e-10  4.6928743
4.07661e-10  4.63691194
4.23448e-10  4.58242764
4.39838e-10  4.52944735
4.56871e-10  4.47789098
4.74555e-10  4.42778015
4.92933e-10  4.37904155
5.12013e-10  4.33169593
5.31841e-10  4.28567034
5.52427e-10  4.24098373
5.7382e-10  4.19756695
5.96031e-10  4.1554357
6.19113e-10  4.11452389
6.43077e-10  4.07484678
6.6798e-10  4.03634004
6.96777e-10  3.99492792
7.26815e-10  3.9549193
7.58147e-10  3.91628069
7.90831e-10  3.87897568
8.24923e-10  3.84297331
8.60485e-10  3.80823882
8.97581e-10  3.77473863
9.36275e-10  3.7424417
9.8076e-10  3.70827057
1.027376e-09  3.67545899
1.076189e-09  3.64398893
1.127341e-09  3.61379455
1.180904e-09  3.58485632
1.237033e-09  3.55711164
1.3013e-09  3.52817532
1.368905e-09  3.50057129
1.440023e-09  3.47424749
1.514835e-09  3.44915395
1.593534e-09  3.42524076
1.683397e-09  3.40061456
1.778359e-09  3.37724884
1.878644e-09  3.35510034
1.992996e-09  3.3325316
2.114309e-09  3.31123097
2.243006e-09  3.29113204
2.389622e-09  3.27085579
2.545777e-09  3.25181593
2.723632e-09  3.2327798
2.913912e-09  3.21497976
3.130698e-09  3.19733194
3.363553e-09  3.18090678
3.629045e-09  3.16474906
3.932087e-09  3.14897128
4.26036e-09  3.13441181
4.635603e-09  3.12029446
5.065276e-09  3.10669795
5.558135e-09  3.09369048
6.124691e-09  3.08132438
6.777603e-09  3.06963749
7.531908e-09  3.0586583
8.440965e-09  3.04803403
9.499835e-09  3.03822242
1.0782166e-08  3.02892024
1.2341331e-08  3.02021399
1.4245705e-08  3.01216549
1.6653625e-08  3.00462395
1.9716451e-08  2.99769291
2.5295669e-08  2.98938068
2.53e-08  2.98937566
3.1244276e-08  2.98378791
3.9574771e-08  2.97878153
5.1629891e-08  2.97439703
7.0259695e-08  2.97058006
1.01005301e-07  2.96735929
1.57994531e-07  2.96470277
2.8049809e-07  2.96264225
6.30762263e-07  2.96115241
0.0015934035  2.8844759
0.0016144335  2.88879162
0.00161899  2.90034733
0.0016207425  2.91874109
0.00162157494  2.94428882
0.0016220744  2.97752743
0.00162245995  3.02248652
0.00162274912  3.0736773
0.00162302075  3.14042652
0.00162328363  3.22640538
0.0016235465  3.33673309
0.00162379624  3.46571412
0.00162404597  3.61762006
0.0016243877  3.8558778
0.0016249967  4.30566629
0.00162524643  4.46627569
0.00162542168  4.55961858
0.00162559693  4.63220222
0.00162580022  4.68602752
0.001626  4.70403431
0.00162619979  4.68632324
0.00162640308  4.63280673
0.00162657833  4.56049969
0.00162683683  4.41714266
0.00162708655  4.24867565
0.00162778755  3.73280568
0.00162803729  3.56752758
0.00162828702  3.42314499
0.00162854113  3.30016753
0.001628804  3.19815856
0.00162906688  3.11945512
0.00162934728  3.05718073
0.00162954005  3.02491431
0.0016299256  2.97961898
0.00163042507  2.94599087
0.0016312575  2.9199571
0.00163301  2.90094252
0.0016375665  2.88850574
0.001667359  2.88123499
0.00428361483  2.7802135
0.01  2.59424136
0.01938977  2.75253943
0.0194000495  2.77426193
0.019410065  2.75316719
0.01941914  2.75129697
0.02  2.75970907
0.0202609  2.93478128
0.0204735  3.2811106
0.0204865563  3.25823729
0.0206824  2.81337371
0.0208944  2.99502182
0.0211098  2.92437553
0.02132605  2.66865254
0.0213318704  2.67579858
0.0215435594  3.36220851
0.0215505  3.37429023
0.021558275  3.36274608
0.021769775  2.75543361
0.0217812399  2.74068289
0.0220052  2.86683868
0.0222369207  2.63366539
0.0224726762  2.23521555
0.022479975  2.24477437
0.0227084867  2.93833091
0.0228319394  3.25127958
0.0228662025  3.35086953
0.022885179  3.42385265
0.0228957215  3.48321854
0.0229009928  3.52521043
0.022906264  3.58373924
0.0229102175  3.64729987
0.0229131826  3.71478247
0.0229154888  3.78721702
0.0229174655  3.87247816
0.0229187833  3.94858377
0.0229201011  4.04961133
0.0229210895  4.150624
0.0229217484  4.23550296
0.0229224073  4.33949644
0.0229230662  4.46857009
0.0229235604  4.58645848
0.0229240545  4.72688363
0.0229245487  4.89482885
0.0229249572  5.05852918
0.0229253229  5.22748958
0.0229256886  5.4207945
0.0229260543  5.64182673
0.02292642  5.89428973
0.0229267857  6.1821986
0.0229271514  6.50985994
0.0229275171  6.88183889
0.0229278828  7.30291174
0.0229282485  7.77800236
0.0229286141  8.311947
0.0229288777  8.73630814
0.0229291413  9.19572248
0.0229294049  9.69194012
0.0229298002  10.5086464
0.0229301955  11.4168496
0.0229305909  12.4209794
0.0229309862  13.5235606
0.0229313816  14.726785
0.0229317769  16.0300119
0.0229321723  17.4319497
0.0229325676  18.9277922
0.0229330684  20.947872
0.0229335428  22.9743013
0.0229342544  26.1708453
0.022935783  33.2316686
0.0229363102  35.553104
0.0229368373  37.7220625
0.022937259  39.3085665
0.0229376807  40.7317029
0.0229382078  42.2405407
0.0229386032  43.1500324
0.0229389669  43.8028862
0.0229393675  44.306282
0.0229400116  44.6209337
0.0229404428  44.484553
0.0229407591  44.2088538
0.0229412124  43.5617067
0.0229416078  42.7656803
0.0229420031  41.7688097
0.0229424644  40.3745618
0.0229430573  38.2672757
0.0229435845  36.1531969
0.0229443752  32.689543
0.022946062  24.9369323
0.0229467341  21.9917274
0.0229472217  19.9764884
0.0229476171  18.4335779
0.0229480124  16.9813721
0.0229484078  15.6245606
0.0229488031  14.3669991
0.0229491984  13.209455
0.0229495938  12.1509901
0.0229499892  11.1896781
0.0229503845  10.3222134
0.0229507798  9.54381362
0.0229511751  8.84918935
0.0229515112  8.32015085
0.0229518472  7.84384717
0.0229521833  7.41615377
0.0229525193  7.03347876
0.0229528553  6.69189758
0.0229531914  6.38764143
0.0229535274  6.1173549
0.0229538634  5.8775861
0.0229543115  5.59988969
0.0229547595  5.36406087
0.0229552044  5.16515206
0.0229559456  4.89766853
0.0229565386  4.72945185
0.0229571316  4.59269968
0.0229577247  4.48063485
0.0229586142  4.34748856
0.0229595037  4.24471553
0.0229604921  4.15513271
0.0229614804  4.08356062
0.0229627982  4.00723036
0.0229647749  3.91943441
0.0229673447  3.83488541
0.0229699144  3.77112633
0.0229742632  3.69176977
0.0229795344  3.62345121
0.0229874413  3.55041258
0.0229969295  3.48562163
0.0230095805  3.4170236
0.0230306655  3.32163619
0.0230733627  3.15229622
0.0232022447  2.67794971
0.0232114118  2.65475872
0.0234545817  2.32632264
0.0234592  2.3251489
0.0234682975  2.33726539
0.0237155  2.83438004
0.023976  2.75858665
0.0242408  2.60459777
0.0245101  2.80528595
0.0247838  2.53771443
0.0250622  2.30317227
0.0253452  2.68976807
0.0253586954  2.67356075
0.0256286016  2.22822128
0.0256331  2.22556409
0.0256422532  2.23338085
0.025926  2.66532586
0.0262239  2.70461516
0.0265143688  2.69962103
0.026886236  2.63254565
0.027149  2.59634356
0.0274675986  2.48057426
0.0276005591  2.59998992
0.0276100841  2.62536092
0.0276122489  2.64760335
0.0276133313  2.66883492
0.0276144136  2.7023909
0.0276154419  2.75160782
0.0276162132  2.80406864
0.0276169844  2.87396165
0.0276177556  2.96544901
0.0276182697  3.04057656
0.0276187973  3.13098625
0.0276193385  3.23904974
0.0276198797  3.36379713
0.0276204209  3.50611499
0.0276209621  3.66649704
0.0276215033  3.84494154
0.0276220445  4.0408555
0.0276228563  4.36451445
0.0276237439  4.75110038
0.0276258436  5.70729077
0.0276267095  6.06673179
0.027627359  6.30220808
0.0276283115  6.57397523
0.0276289609  6.6984271
0.0276295368  6.76239515
0.027630052  6.78078371
0.0276306062  6.75905905
0.0276311366  6.69865479
0.0276317751  6.57716453
0.0276324138  6.40717126
0.0276330307  6.20337044
0.0276336802  5.95492228
0.0276343729  5.66212929
0.0276364943  4.7062793
0.0276373061  4.36057842
0.0276381179  4.0445046
0.0276386591  3.85378532
0.0276392003  3.68047963
0.0276397415  3.52506061
0.0276402827  3.38743363
0.0276408239  3.26703338
0.0276414734  3.14394728
0.0276421229  3.04220841
0.0276427723  2.95939873
0.0276434217  2.89294698
0.0276442876  2.82545072
0.0276450994  2.77960617
0.0276459112  2.74658255
0.0276469936  2.71692723
0.0276486171  2.69191669
0.0276507819  2.67694183
0.0276609563  2.66529861
0.0276888819  2.68005304
0.0277932  2.76537856
0.0281239  2.61932054
0.0284534476  2.10550033
0.0284625822  2.09845902
0.028796097  2.37067747
0.0288252472  2.3802691
0.0291523  2.42933788
0.0295077  2.09988229
0.0298635756  1.97694208
0.0298729523  1.98373783
0.0302361856  2.78967365
0.0302382  2.79081196
0.0302474131  2.78372407
0.0306089774  2.17878177
0.0306217091  2.16687192
0.030787221  2.09374387
0.0309230256  2.02178106
0.0310248791  1.95602815
0.0311012693  1.89612627
0.0311776593  1.82311131
0.0312285861  1.76384023
0.0312763299  1.69701139
0.0312842873  1.68087367
0.0312895921  1.66231446
0.0312975494  1.62087951
0.0313240738  1.46003678
0.0313505981  1.2920157
0.0313771224  1.11545169
0.0313956895  0.987342824
0.0313992492  0.967459446
0.031401971  0.95845488
0.0314037855  0.957104567
0.0314056  0.960275869
0.0314077988  0.97048609
0.0314099976  0.987150135
0.0314121964  1.00894976
0.031416594  1.06157565
0.0314319856  1.26078205
0.0314374826  1.32620351
0.0314407808  1.35691131
0.0314428904  1.37007508
0.0314461944  1.37734572
0.0314485832  1.37213919
0.0314509719  1.35955617
0.031454555  1.3314946
0.0314617212  1.2625013
0.0314832198  1.03999896
0.0315042272  0.835379935
0.0315135638  0.741032745
0.0315158979  0.719555918
0.031518232  0.701783154
0.0315199826  0.692442731
0.0315222831  0.687454534
0.0315235708  0.688945062
0.0315252708  0.69595758
0.0315265415  0.704878404
0.0315284477  0.723590302
0.0315303538  0.747547657
0.0315328953  0.785091021
0.0315379783  0.868729305
0.0315506978  1.08465008
0.0315528197  1.12404652
0.0315549417  1.16875219
0.0315565332  1.20854146
0.0315581246  1.25663199
0.0315591855  1.29481419
0.0315602465  1.33897647
0.0315613074  1.38996035
0.0315622623  1.44227404
0.0315632172  1.50106352
0.0315641721  1.56653495
0.031565127  1.63871362
0.0315665594  1.75917621
0.0315679917  1.89314139
0.0315695301  2.05003809
0.0315712807  2.24178079
0.0315736148  2.51335719
0.0315764794  2.86306709
0.0315806172  3.39015586
0.0315840123  3.8421731
0.0315871952  4.28622485
0.0315948342  5.405639
0.0315964257  5.61529393
0.0315980172  5.79334769
0.0315990781  5.88742202
0.0316001391  5.9572042
0.0316012001  5.99963876
0.0316022611  6.01304126
0.0316034  5.99532438
0.0316049623  5.92291317
0.0316086269  5.65208506
0.0316096879  5.59509035
0.0316107489  5.57369911
0.0316115446  5.59121559
0.0316121281  5.62735519
0.0316127647  5.6935315
0.0316134013  5.7919544
0.0316140379  5.92732379
0.0316146214  6.08808511
0.0316151519  6.26817701
0.0316156824  6.48385089
0.0316162129  6.73840199
0.0316167434  7.03525411
0.0316172739  7.3779497
0.0316178044  7.77013347
0.0316183348  8.21543948
0.0316188388  8.69129962
0.0316193162  9.19240809
0.0316197937  9.74540963
0.0316202711  10.3527303
0.0316207486  11.0171752
0.031621226  11.7408607
0.0316217034  12.5261044
0.0316221808  13.3748222
0.0316227378  14.4473746
0.0316233744  15.7839224
0.031624011  17.2397318
0.0316246476  18.8142297
0.0316252842  20.5047119
0.0316259208  22.3060644
0.0316265574  24.2105224
0.0316275122  27.2362073
0.0316287005  31.2172402
0.031631162  39.6697792
0.0316321169  42.774777
0.0316328595  45.0262601
0.0316337083  47.3620202
0.0316345571  49.3843458
0.0316354059  51.0383733
0.0316361698  52.1753447
0.0316368488  52.886484
0.0316375278  53.3052953
0.031638122  53.4290169
0.0316389283  53.2379445
0.0316395649  52.8039888
0.0316404137  51.859858
0.0316411776  50.6833998
0.0316419415  49.2344126
0.0316434693  45.6839978
0.0316444666  43.0332357
0.031647989  33.0509156
0.03164905  30.1895454
0.031650111  27.5029855
0.0316509068  25.622729
0.0316517024  23.8676837
0.0316525778  22.0851602
0.0316534531  20.4587186
0.0316543284  18.9846766
0.0316552037  17.6567696
0.031656079  16.4668482
0.0316569012  15.4665241
0.031657697  14.5988188
0.0316584927  13.8225395
0.0316592885  13.1301902
0.0316600842  12.5149345
0.0316608799  11.9700557
0.0316616756  11.4893705
0.0316624714  11.0671128
0.0316632671  10.6981411
0.0316643281  10.2807379
0.0316652299  9.9860734
0.0316663439  9.68962301
0.0316674579  9.45918928
0.0316685719  9.286575
0.031669686  9.16443704
0.0316707999  9.0860973
0.0316729219  9.03543813
0.0316745134  9.06127446
0.0316802159  9.30631456
0.031682536  9.34602778
0.0316839882  9.3269272
0.0316859644  9.24206692
0.0316879406  9.09625394
0.0316909049  8.79895241
0.0316968335  8.12927486
0.0317009317  7.71083164
0.0317051756  7.33376492
0.0317094195  7.00572011
0.0317136634  6.71763517
0.0317185439  6.42648373
0.0317240609  6.13920495
0.031729578  5.88763012
0.031735095  5.66474674
0.0317420974  5.4150455
0.0317505852  5.1521215
0.031759073  4.92331645
0.0317675608  4.72092168
0.0317771095  4.51823067
0.0317877193  4.31759556
0.031798329  4.13739247
0.0318142436  3.89658959
0.0318301583  3.68269762
0.0318460728  3.48904478
0.0318672923  3.25465202
0.0318885118  3.04032918
0.0318991215  2.94337468
0.0319044264  2.90656037
0.0319097313  2.88198337
0.0319309507  2.82469793
0.0319627799  2.75912442
0.0320052189  2.69416576
0.0320519017  2.64339935
0.0321028285  2.60466934
0.0321792186  2.56848903
0.0323150232  2.54075617
0.0324508279  2.48199559
0.0326120959  2.43157655
0.0327903395  2.39095855
0.0331505022  2.33491429
0.0335755698  2.14245351
0.033584853  2.12409476
0.0337386614  1.62593342
0.0337969084  1.44448063
0.0338231196  1.36785361
0.0338449622  1.30966802
0.033859524  1.27633935
0.0338722655  1.25368963
0.0338804566  1.24439247
0.0338872824  1.24152869
0.0338941082  1.24525885
0.0338995688  1.25517075
0.0339050295  1.27416096
0.0339086699  1.29397168
0.0339123104  1.32177294
0.0339150407  1.34961079
0.033917771  1.38539172
0.0339197915  1.41843866
0.0339218119  1.45860511
0.0339238323  1.50777682
0.0339258527  1.56854151
0.0339271997  1.61724009
0.0339285466  1.67414367
0.0339300028  1.74713123
0.033931095  1.81158662
0.0339321871  1.88637918
0.0339332793  1.97394847
0.0339343713  2.0774843
0.0339350994  2.1574691
0.0339358275  2.2480702
0.0339365556  2.35127611
0.0339372837  2.46951537
0.0339380118  2.60574646
0.0339385579  2.72186419
0.033939104  2.85188655
0.03393965  2.99782291
0.033940196  3.16201383
0.0339406875  3.32758852
0.033941179  3.51220814
0.0339416705  3.71822204
0.0339421619  3.9481479
0.0339426534  4.204859
0.0339431449  4.49129202
0.0339436364  4.81060722
0.0339441278  5.16603608
0.0339446193  5.56113398
0.0339451107  5.99919666
0.0339456204  6.50271832
0.0339459844  6.8949681
0.0339463485  7.31600918
0.0339467125  7.76680051
0.0339472586  8.50143222
0.0339478046  9.30849914
0.0339483506  10.1901587
0.0339488967  11.1474241
0.0339494428  12.1795352
0.0339499889  13.2842213
0.0339505349  14.4571236
0.033951263  16.1166763
0.0339520275  17.9554192
0.033954503  24.1522128
0.0339552675  25.9660448
0.0339559956  27.5625551
0.0339566873  28.9164752
0.0339573425  30.0168522
0.0339579177  30.8129197
0.0339584128  31.3571244
0.0339589516  31.7902885
0.0339595341  32.0627703
0.0339599971  32.1300857
0.0339606407  32.0021533
0.0339612232  31.6671305
0.0339618785  31.050993
0.03396241  30.3766231
0.0339630362  29.3992916
0.0339636769  28.2187537
0.0339643322  26.8529324
0.0339650239  25.2749761
0.0339661159  22.5981852
0.0339678998  18.0998752
0.0339688099  15.9032155
0.0339694652  14.4076815
0.0339701205  13.0015245
0.0339706119  12.0121182
0.0339711398  11.01503
0.0339716859  10.0572843
0.0339722319  9.17517783
0.033972778  8.36749648
0.033973506  7.40305256
0.0339739611  6.86233389
0.0339743707  6.41438348
0.0339747802  6.00133076
0.0339751898  5.62106246
0.0339755993  5.27178991
0.0339760089  4.95134015
0.0339764184  4.65787178
0.033976828  4.38927334
0.0339772376  4.14370348
0.0339776471  3.9193682
0.0339780566  3.71444323
0.0339786027  3.46849218
0.0339791488  3.25042726
0.0339796949  3.05689967
0.0339802409  2.88492153
0.033980787  2.73173567
0.0339813331  2.59498832
0.0339818792  2.47257925
0.0339824252  2.36269063
0.0339831533  2.23286488
0.0339838813  2.11924838
0.0339846094  2.01916985
0.0339853375  1.93048232
0.0339860656  1.85141541
0.0339867937  1.78052005
0.0339878859  1.6869536
0.033988978  1.60598972
0.0339902703  1.52321463
0.0339913989  1.46029058
0.0339925274  1.40452683
0.0339942202  1.33181127
0.0339959131  1.26963804
0.0339976058  1.21584433
0.0339995898  1.16129236
0.0340013008  1.12020142
0.0340038673  1.06679379
0.0340064338  1.02126242
0.0340090003  0.98206463
0.0340115668  0.948297134
0.0340140605  0.920333244
0.0340165178  0.897424906
0.0340189751  0.8791621
0.0340214324  0.865375773
0.0340238897  0.855566887
0.0340268021  0.848040134
0.0340306245  0.842794209
0.0340357211  0.840617764
0.0340444582  0.844066696
0.0340531952  0.853295095
