E(MeV)  pendfb7/H1:102
1e-11  16.6999834
1.02999e-11  16.4550624
1.06087e-11  16.2138088
1.09269e-11  15.9759817
1.12544e-11  15.7417878
1.1592e-11  15.5108948
1.19395e-11  15.2835084
1.22976e-11  15.0593372
1.26662e-11  14.8385706
1.30462e-11  14.6208972
1.34372e-11  14.406586
1.38403e-11  14.1952579
1.42552e-11  13.9871774
1.46827e-11  13.7820264
1.51229e-11  13.5799788
1.55765e-11  13.3807698
1.60434e-11  13.1846346
1.65246e-11  12.9912386
1.70199e-11  12.8007998
1.75304e-11  12.6130502
1.80559e-11  12.4281393
1.85975e-11  12.2458449
1.9155e-11  12.0663279
1.97295e-11  11.8893469
2.03209e-11  11.7150495
2.09305e-11  11.5432004
2.15579e-11  11.3739977
2.22045e-11  11.2071592
2.28701e-11  11.0428747
2.35561e-11  10.8808881
2.42622e-11  10.7213914
2.49899e-11  10.564131
2.5739e-11  10.4092673
2.6511e-11  10.2565897
2.73057e-11  10.1062297
2.81247e-11  9.95799925
2.89678e-11  9.81201433
2.98367e-11  9.66808911
3.07311e-11  9.52636421
3.16528e-11  9.38663589
3.26017e-11  9.24903002
3.35795e-11  9.11336839
3.45861e-11  8.97976965
3.56235e-11  8.84805361
3.66913e-11  8.71834807
3.77919e-11  8.59046505
3.89247e-11  8.46453707
4.00923e-11  8.34037452
4.12941e-11  8.21811509
4.25327e-11  8.09756722
4.38076e-11  7.97886701
4.51216e-11  7.86183261
4.64742e-11  7.74658399
4.78681e-11  7.63295925
4.9303e-11  7.52106326
5.07818e-11  7.41074711
5.23041e-11  7.30210795
5.38729e-11  7.19500104
5.54878e-11  7.08952693
5.71521e-11  6.98553933
5.88653e-11  6.88313463
6.0631e-11  6.78217002
6.24484e-11  6.68275088
6.43215e-11  6.58472977
6.62496e-11  6.48820075
6.82368e-11  6.39302956
7.02822e-11  6.29931443
7.23903e-11  6.20691575
7.45603e-11  6.11592702
7.67967e-11  6.0262169
7.90987e-11  5.93787843
8.14712e-11  5.85078288
8.39134e-11  5.76501324
8.64304e-11  5.68045046
8.90212e-11  5.59718055
9.16913e-11  5.51508199
9.44399e-11  5.43423386
9.72725e-11  5.3545256
1.00188e-10  5.27603092
1.03193e-10  5.19865407
1.06287e-10  5.12243362
1.09475e-10  5.04729352
1.12756e-10  4.97330789
1.16139e-10  4.90034884
1.1962e-10  4.82852355
1.23208e-10  4.75769486
1.26901e-10  4.68795422
1.30707e-10  4.61919839
1.34626e-10  4.55147718
1.38664e-10  4.48470805
1.4282e-10  4.41897329
1.47104e-10  4.35415412
1.51513e-10  4.2903269
1.56058e-10  4.22739685
1.60736e-10  4.16542569
1.65557e-10  4.10432993
1.7052e-10  4.04416065
1.75635e-10  3.98483649
1.80899e-10  3.92642591
1.86325e-10  3.86883736
1.91911e-10  3.81211869
1.97667e-10  3.75620211
2.03592e-10  3.70113922
2.09699e-10  3.64684965
2.15985e-10  3.59339061
2.22463e-10  3.5406838
2.29132e-10  3.48877882
2.36004e-10  3.43760804
2.43079e-10  3.38721251
2.5037e-10  3.33752781
2.57875e-10  3.28860302
2.6561e-10  3.24036421
2.73572e-10  3.19286429
2.81777e-10  3.14603295
2.90224e-10  3.09991272
2.98929e-10  3.05444292
3.0789e-10  3.00966719
3.17125e-10  2.96551959
3.26631e-10  2.92204891
3.36428e-10  2.87918765
3.46513e-10  2.8369814
3.56906e-10  2.7953688
3.67605e-10  2.7543904
3.78631e-10  2.71398819
3.89981e-10  2.67420381
4.01678e-10  2.63497813
4.13719e-10  2.59635164
4.26128e-10  2.55826778
4.38901e-10  2.52076592
4.52066e-10  2.48379138
4.65617e-10  2.44738067
4.79583e-10  2.41148268
4.93959e-10  2.37613184
5.08775e-10  2.34127893
5.24026e-10  2.30695722
5.39744e-10  2.27311876
5.55923e-10  2.23979643
5.72598e-10  2.20694304
5.89762e-10  2.17459085
6.07452e-10  2.14269351
6.25661e-10  2.11128355
6.44427e-10  2.08031535
6.63744e-10  2.04981927
6.83653e-10  2.0197526
7.04146e-10  1.99014435
7.25267e-10  1.96095252
7.47007e-10  1.93220671
7.69413e-10  1.90386556
7.92477e-10  1.87595576
8.16247e-10  1.84843949
8.40715e-10  1.82134241
8.65932e-10  1.79462677
8.91889e-10  1.76831898
9.18641e-10  1.74238099
9.46178e-10  1.71683918
9.74558e-10  1.69165653
1.003771e-09  1.66685807
1.033879e-09  1.64240848
1.064871e-09  1.61833203
1.096811e-09  1.59459404
1.129689e-09  1.57121869
1.163573e-09  1.54817203
1.198452e-09  1.52547693
1.234399e-09  1.50310132
1.271402e-09  1.48106682
1.309537e-09  1.45934222
1.348791e-09  1.43794958
1.389247e-09  1.41685792
1.430892e-09  1.39608759
1.47381e-09  1.37560988
1.517989e-09  1.35544429
1.563521e-09  1.33556237
1.610389e-09  1.31598422
1.658691e-09  1.29668143
1.708412e-09  1.27767292
1.759655e-09  1.25893199
1.812403e-09  1.24047694
1.866765e-09  1.22228142
1.922723e-09  1.20436383
1.980394e-09  1.18669806
2.039758e-09  1.16930205
2.100939e-09  1.15215076
2.163917e-09  1.135261
2.228823e-09  1.11860883
2.295634e-09  1.10221096
2.36449e-09  1.08604368
2.435368e-09  1.07012308
2.508415e-09  1.05442656
2.583608e-09  1.03896936
2.661102e-09  1.02372962
2.740871e-09  1.00872259
2.823082e-09  0.993926534
2.907706e-09  0.979356371
2.994921e-09  0.964991183
3.084697e-09  0.950845072
3.177221e-09  0.936898014
3.272461e-09  0.923163802
3.370617e-09  0.909622777
3.471655e-09  0.896288397
3.575785e-09  0.883141575
3.682973e-09  0.870195396
3.793441e-09  0.857431357
3.907154e-09  0.844862022
4.024346e-09  0.832469579
4.14498e-09  0.820266159
4.269306e-09  0.808234503
4.397283e-09  0.796386339
4.529177e-09  0.784704929
4.664944e-09  0.773201715
4.804866e-09  0.761860376
4.948897e-09  0.750692048
5.097336e-09  0.739680884
5.250134e-09  0.728837689
5.407609e-09  0.718147055
5.569708e-09  0.707619559
5.736768e-09  0.697240139
5.908733e-09  0.687019138
6.085962e-09  0.676941914
6.268395e-09  0.667018443
6.456412e-09  0.657234578
6.649949e-09  0.647600013
6.849411e-09  0.638100974
7.054729e-09  0.628746897
7.266331e-09  0.619524422
7.484147e-09  0.61044264
7.70863e-09  0.601488625
7.939704e-09  0.59267126
8.17785e-09  0.583977948
8.42299e-09  0.575417246
8.675632e-09  0.566977019
8.935694e-09  0.558665536
9.203714e-09  0.550471017
9.479605e-09  0.542401506
9.76394e-09  0.534445547
1.0056625e-08  0.526610959
1.0358267e-08  0.518886608
1.0668767e-08  0.51128011
1.098877e-08  0.503780634
1.131817e-08  0.496395578
1.1657652e-08  0.489114419
1.2007102e-08  0.481944369
1.2367248e-08  0.474875181
1.2737969e-08  0.467913867
1.3120036e-08  0.461050494
1.3513323e-08  0.454291825
1.3918647e-08  0.447628256
1.4335873e-08  0.441066351
1.4765869e-08  0.434596772
1.5208491e-08  0.428225902
1.5664661e-08  0.421944663
1.6134225e-08  0.415759267
1.6618162e-08  0.409660889
1.7116308e-08  0.403655563
1.7629702e-08  0.397734724
1.8158171e-08  0.391904226
1.8702814e-08  0.386155757
1.926345e-08  0.380494998
1.9841246e-08  0.374913879
2.0436008e-08  0.369417918
2.1048973e-08  0.363999285
2.1679938e-08  0.358663317
2.2330215e-08  0.353402428
2.2999587e-08  0.348221807
2.3689445e-08  0.343114076
2.4399561e-08  0.338084273
2.5268741e-08  0.332218776
2.53e-08  0.332013478
2.6058858e-08  0.327143491
2.684e-08  0.322347806
2.7645049e-08  0.317619595
2.8473738e-08  0.312963523
2.9327791e-08  0.308372959
3.0206922e-08  0.303852437
3.111296e-08  0.299395518
3.2045604e-08  0.295006596
3.3006792e-08  0.290679428
3.3996206e-08  0.286418278
3.5015901e-08  0.282217082
3.6065539e-08  0.278079985
3.7147303e-08  0.274001097
3.8260833e-08  0.269984439
3.9408443e-08  0.266024294
4.0589752e-08  0.262124572
4.1807217e-08  0.258279718
4.3060432e-08  0.254493525
4.4352004e-08  0.250760601
4.5681502e-08  0.247084634
4.705169e-08  0.243460386
4.8462114e-08  0.239891432
4.9915706e-08  0.236372693
5.1411981e-08  0.232907642
5.2954052e-08  0.229491342
5.4541406e-08  0.226127165
5.6177342e-08  0.22281032
5.7861316e-08  0.219544083
5.9596832e-08  0.216323798
6.1383309e-08  0.21315265
6.3224464e-08  0.210026116
6.5119683e-08  0.206947285
6.7072909e-08  0.203911771
6.9083489e-08  0.200922573
7.1155607e-08  0.197975429
7.328857e-08  0.195073253
7.5486817e-08  0.192211908
7.7749613e-08  0.18939422
8.0081665e-08  0.186616176
8.2482197e-08  0.183880518
8.49562e-08  0.181183348
8.7502851e-08  0.178527331
9.0127446e-08  0.175908682
9.2829111e-08  0.173329987
9.5613464e-08  0.170787572
9.8479577e-08  0.16828395
1.01433412e-07  0.165815551
1.04473985e-07  0.163384814
1.07607619e-07  0.160988275
1.1083327e-07  0.158628302
1.14157646e-07  0.156301532
1.17579641e-07  0.154010264
1.21106371e-07  0.151751231
1.24736661e-07  0.149526667
1.28478062e-07  0.147333399
1.32329326e-07  0.145173597
1.36298464e-07  0.14304418
1.40384153e-07  0.140947255
1.4459489e-07  0.13887983
1.48929273e-07  0.13684395
1.53396316e-07  0.134836714
1.57994531e-07  0.132860101
1.62733481e-07  0.1309113
1.67611588e-07  0.128992232
1.72638996e-07  0.127100163
1.7781403e-07  0.125236964
1.83147454e-07  0.123399978
1.8863749e-07  0.121591021
1.94295557e-07  0.119807513
2.0011977e-07  0.118051219
2.06122241e-07  0.116319633
2.12300971e-07  0.114614468
2.18668809e-07  0.112933293
2.25223636e-07  0.111277768
2.31979082e-07  0.109645535
2.38932897e-07  0.108038206
2.46099545e-07  0.106453491
2.53476636e-07  0.104892956
2.61079514e-07  0.103354375
2.68905645e-07  0.10183927
2.76971307e-07  0.100345481
2.85273811e-07  0.098874483
2.93830426e-07  0.097424181
3.02638301e-07  0.095996007
3.11715753e-07  0.094587927
3.21059758e-07  0.09320133
3.30689751e-07  0.091834241
3.40602522e-07  0.09048801
3.50818688e-07  0.089160719
3.61334845e-07  0.08785368
3.72172865e-07  0.086565027
3.83329135e-07  0.085296036
3.9482686e-07  0.084044898
4.06662208e-07  0.082812847
4.18859794e-07  0.081598129
4.31415555e-07  0.080401942
4.44355602e-07  0.079222582
4.57675626e-07  0.078061214
4.71403329e-07  0.076916182
4.85534136e-07  0.075788615
5.00097438e-07  0.074676908
5.15088382e-07  0.073582156
5.30538145e-07  0.072502801
5.46441581e-07  0.071439905
5.62831765e-07  0.070391957
5.79703235e-07  0.069359987
5.97091082e-07  0.068342528
6.14989512e-07  0.067340582
6.33435749e-07  0.066352723
6.52423648e-07  0.065379927
6.71992699e-07  0.064420808
6.92136383e-07  0.063476316
7.12896594e-07  0.062545107
7.34266415e-07  0.061628104
7.5629029e-07  0.060724005
7.78960882e-07  0.059833708
8.02325342e-07  0.058955949
8.26375882e-07  0.058091601
8.51162526e-07  0.057239439
8.76677012e-07  0.056400311
9.02972407e-07  0.055573027
9.30039949e-07  0.054758407
9.57935933e-07  0.053955297
9.86651065e-07  0.053164489
1.01195589e-06  0.052495725
1.04050974e-06  0.051770632
1.06986929e-06  0.051055579
1.10005725e-06  0.050350447
1.13109702e-06  0.049655091
1.16301262e-06  0.04896937
1.19582876e-06  0.048293125
1.22957087e-06  0.047626217
1.26426505e-06  0.046968528
1.29993819e-06  0.046319914
1.33661789e-06  0.045680236
1.37433257e-06  0.045049396
1.41311143e-06  0.04442722
1.45298448e-06  0.043813581
1.5150601e-06  0.042906905
1.57948201e-06  0.042022971
1.64696196e-06  0.041153214
1.71699247e-06  0.04030569
1.79034725e-06  0.039471438
1.86647465e-06  0.038658183
1.94621574e-06  0.037858015
2.02897083e-06  0.037077998
2.11565421e-06  0.036310549
2.20561399e-06  0.035562444
2.29984408e-06  0.034826405
2.3976358e-06  0.034108928
2.5000696e-06  0.033403025
2.60637512e-06  0.032714915
2.71772686e-06  0.032037889
2.83328738e-06  0.031377908
2.99543407e-06  0.030517051
3.16686028e-06  0.029679797
3.34809707e-06  0.028865514
3.53970589e-06  0.028073574
3.74228032e-06  0.027303347
3.95644792e-06  0.026554231
4.18287216e-06  0.025825684
4.42225446e-06  0.025117188
4.74129723e-06  0.024257734
5.08237344e-06  0.023429946
5.44904038e-06  0.02262823
5.84102973e-06  0.021856213
6.26242979e-06  0.021108744
6.80763992e-06  0.020246685
7.40031631e-06  0.019419068
8.04459138e-06  0.018624932
8.74495735e-06  0.017864245
9.6385489e-06  0.01701683
1.06255074e-05  0.016207447
1.17112604e-05  0.015438883
1.29104583e-05  0.014703272
1.42296959e-05  0.014006689
1.5686774e-05  0.013340178
1.72897057e-05  0.012704252
1.90601196e-05  0.012100117
2.1007752e-05  0.011525296
2.31588827e-05  0.01097839
2.55253416e-05  0.010455094
2.813906e-05  0.009959503
3.10144115e-05  0.009486924
3.41901941e-05  0.009032621
3.76838725e-05  0.008604495
4.1542588e-05  0.008195498
4.57875607e-05  0.007805182
5.04760695e-05  0.007433787
5.56338979e-05  0.007080036
6.13306421e-05  0.006744412
6.75976302e-05  0.006422676
7.45194247e-05  0.00611736
8.21340905e-05  0.005826913
9.05443749e-05  0.005548633
9.97965285e-05  0.005284715
0.000110015393  0.005032601
0.000119593386  0.004827131
0.000131813873  0.004597083
0.000143289652  0.004409172
0.000155764518  0.00422856
0.000171714337  0.004026809
0.000186663869  0.003861764
0.000205737862  0.003678359
0.000223649499  0.003526859
0.000243120531  0.003382987
0.000264286721  0.003243173
0.000287295649  0.003110367
0.000312307745  0.002982566
0.000344287121  0.002839934
0.000374260922  0.002723234
0.000406844257  0.002611519
0.000448417083  0.002486735
0.000487456489  0.002384581
0.000529894683  0.00228624
0.000576027568  0.002192251
0.000635011062  0.002086224
0.000680692055  0.002015165
0.000750392878  0.001918217
0.000827070752  0.001825667
0.000899075927  0.001750776
0.000977349907  0.001678367
0.00106243846  0.001608551
0.00115493486  0.001541823
0.00127319672  0.001466456
0.00148360609  0.00135647
0.00165827626  0.001281645
0.00180264658  0.001228583
0.00195958585  0.00117722
0.00213018833  0.001127499
0.0022838704  0.001087228
0.0025527585  0.001026217
0.00277500287  0.000982569
0.00301659595  0.000941067
0.00323360177  0.000907651
0.00351512069  0.00086923
0.0038750585  0.000826146
0.00427102607  0.000784697
0.00464286364  0.000750446
0.00510974691  0.000713191
0.00563187943  0.000677094
0.00629494042  0.000637679
0.00690074951  0.000606484
0.00748230286  0.00058028
0.008225732  0.000550822
0.00932389012  0.000513651
0.00999462577  0.000493984
0.015  0.000390772
0.0199521527  0.000328908
0.04  0.000208326
0.06  0.000155086
0.08  0.000124127
0.0999462577  0.000103833
0.15  7.45176e-05
0.2  5.92844e-05
0.3  4.46077e-05
0.4  3.82767e-05
0.499731288  3.52985e-05
0.6  3.38996e-05
0.7  3.33423e-05
0.8  3.32443e-05
0.92539485  3.34775e-05
1.48012084  3.54799e-05
1.8769011  3.65344e-05
2.08544567  3.68734e-05
2.35871861  3.71304e-05
2.6  3.72143e-05
3.0846495  3.70643e-05
3.75380221  3.6539e-05
6.169299  3.41703e-05
7.71162375  3.29772e-05
9.2539485  3.20333e-05
11.4699512  3.09306e-05
20  2.72237e-05
