E(MeV)  pendfb7/Na23:102
1e-11  26.5594155
1.02999e-11  26.1698966
1.06087e-11  25.7862101
1.09269e-11  25.4079732
1.12544e-11  25.0355144
1.1592e-11  24.6683053
1.19395e-11  24.3066731
1.22976e-11  23.9501542
1.26662e-11  23.5990501
1.30462e-11  23.2528651
1.34372e-11  22.9120276
1.38403e-11  22.5759342
1.42552e-11  22.2450058
1.46827e-11  21.9187363
1.51229e-11  21.5974026
1.55765e-11  21.2805833
1.60434e-11  20.9686526
1.65246e-11  20.6610782
1.70199e-11  20.3582069
1.75304e-11  20.0596125
1.80559e-11  19.7655326
1.85975e-11  19.475614
1.9155e-11  19.1901125
1.97295e-11  18.9086444
2.03209e-11  18.6314441
2.09305e-11  18.3581376
2.15579e-11  18.0890399
2.22045e-11  17.8237021
2.28701e-11  17.5624262
2.35561e-11  17.3048049
2.42622e-11  17.0511435
2.49899e-11  16.8010386
2.5739e-11  16.5547453
2.6511e-11  16.311929
2.73057e-11  16.0727984
2.81247e-11  15.8370546
2.89678e-11  15.6048821
2.98367e-11  15.3759853
3.07311e-11  15.1505879
3.16528e-11  14.9283658
3.26017e-11  14.7095192
3.35795e-11  14.4937647
3.45861e-11  14.281291
3.56235e-11  14.0718115
3.66913e-11  13.8655295
3.77919e-11  13.662146
3.89247e-11  13.4618717
4.00923e-11  13.2644052
4.12941e-11  13.0699653
4.25327e-11  12.8782475
4.38076e-11  12.6894682
4.51216e-11  12.5033382
4.64742e-11  12.3200482
4.78681e-11  12.1393409
4.9303e-11  11.9613829
5.07818e-11  11.7859374
5.23041e-11  11.6131591
5.38729e-11  11.4428176
5.54878e-11  11.2750728
5.71521e-11  11.1096922
5.88653e-11  10.9468291
6.0631e-11  10.7862562
6.24484e-11  10.6281412
6.43215e-11  10.4722496
6.62496e-11  10.318731
6.82368e-11  10.1673719
7.02822e-11  10.0183284
7.23903e-11  9.87137866
7.45603e-11  9.72667125
7.67967e-11  9.58399734
7.90987e-11  9.44350485
8.14712e-11  9.3049891
8.39134e-11  9.16858205
8.64304e-11  9.03409437
8.90212e-11  8.90166285
9.16913e-11  8.77109422
9.44399e-11  8.64251426
9.72725e-11  8.51574713
1.00188e-10  8.39091005
1.03193e-10  8.26785075
1.06287e-10  8.14663058
1.09475e-10  8.02712857
1.12756e-10  7.90946262
1.16139e-10  7.79342932
1.1962e-10  7.67919913
1.23208e-10  7.5665539
1.26901e-10  7.45563911
1.30707e-10  7.34629053
1.34626e-10  7.23858739
1.38664e-10  7.13239844
1.4282e-10  7.02785453
1.47104e-10  6.92476674
1.51513e-10  6.82325654
1.56058e-10  6.72317319
1.60736e-10  6.62461483
1.65557e-10  6.52744868
1.7052e-10  6.43175601
1.75635e-10  6.33740739
1.80899e-10  6.24451171
1.86325e-10  6.15292339
1.91911e-10  6.06271849
1.97667e-10  5.97378923
2.03592e-10  5.88621765
2.09699e-10  5.79987594
2.15985e-10  5.71485512
2.22463e-10  5.63103059
2.29132e-10  5.5484813
2.36004e-10  5.46709967
2.43079e-10  5.38695097
2.5037e-10  5.30793277
2.57875e-10  5.23012311
2.6561e-10  5.15340442
2.73572e-10  5.07786083
2.81777e-10  5.00338056
2.90224e-10  4.93003121
2.98929e-10  4.85771629
3.0789e-10  4.78650521
3.17125e-10  4.7162931
3.26631e-10  4.64715754
3.36428e-10  4.57899119
3.46513e-10  4.51186655
3.56906e-10  4.44568604
3.67605e-10  4.38051415
3.78631e-10  4.31625861
3.89981e-10  4.25298568
4.01678e-10  4.19060126
4.13719e-10  4.12916979
4.26128e-10  4.06860132
4.38901e-10  4.00895844
4.52066e-10  3.95015418
4.65617e-10  3.89224665
4.79583e-10  3.83515452
4.93959e-10  3.77893257
5.08775e-10  3.72350251
5.24026e-10  3.66891727
5.39744e-10  3.61510056
5.55923e-10  3.56210472
5.72598e-10  3.50985464
5.89762e-10  3.45840167
6.07452e-10  3.40767208
6.25661e-10  3.35771762
6.44427e-10  3.3084657
6.63744e-10  3.25996464
6.83653e-10  3.21214651
7.04146e-10  3.16505743
7.25267e-10  3.11863062
7.47007e-10  3.07291314
7.69413e-10  3.02783922
7.92477e-10  2.98345133
8.16247e-10  2.93968928
8.40715e-10  2.8965939
8.65932e-10  2.85410516
8.91889e-10  2.81226505
9.18641e-10  2.77101306
9.46178e-10  2.73039115
9.74558e-10  2.69034044
1.003771e-09  2.65090073
1.033879e-09  2.61201585
1.064871e-09  2.57372441
1.096811e-09  2.53597125
1.129689e-09  2.49879483
1.163573e-09  2.46214114
1.198452e-09  2.42604657
1.234399e-09  2.39046009
1.271402e-09  2.35541613
1.309537e-09  2.32086503
1.348791e-09  2.28684187
1.389247e-09  2.25329735
1.430892e-09  2.2202639
1.47381e-09  2.18769582
1.517989e-09  2.15562415
1.563521e-09  2.1240036
1.610389e-09  2.09286616
1.658691e-09  2.06216665
1.708412e-09  2.03193517
1.759655e-09  2.00212925
1.812403e-09  1.97277799
1.866765e-09  1.94383947
1.922723e-09  1.91534299
1.980394e-09  1.88724699
2.039758e-09  1.85958002
2.100939e-09  1.83230226
2.163917e-09  1.80544043
2.228823e-09  1.77895647
2.295634e-09  1.75287695
2.36449e-09  1.72716416
2.435368e-09  1.70184371
2.508415e-09  1.67687963
2.583608e-09  1.65229616
2.661102e-09  1.62805857
2.740871e-09  1.60419107
2.823082e-09  1.58065911
2.907706e-09  1.55748643
2.994921e-09  1.53463975
3.084697e-09  1.5121415
3.177221e-09  1.48995984
3.272461e-09  1.4681167
3.370617e-09  1.44658081
3.471655e-09  1.42537359
3.575785e-09  1.40446468
3.682973e-09  1.38387489
3.793441e-09  1.36357479
3.907154e-09  1.34358437
4.024346e-09  1.32387529
4.14498e-09  1.30446686
4.269306e-09  1.28533162
4.397283e-09  1.26648824
4.529177e-09  1.24791009
4.664944e-09  1.22961537
4.804866e-09  1.21157811
4.948897e-09  1.19381605
5.097336e-09  1.17630396
5.250134e-09  1.15905905
5.407609e-09  1.1420568
5.569708e-09  1.12531404
5.736768e-09  1.10880681
5.908733e-09  1.09255157
6.085962e-09  1.07652503
6.268395e-09  1.06074305
6.456412e-09  1.04518314
6.649949e-09  1.02986072
6.849411e-09  1.01475388
7.054729e-09  0.999877628
7.266331e-09  0.985210713
7.484147e-09  0.970767607
7.70863e-09  0.956527737
7.939704e-09  0.942505247
8.17785e-09  0.928680089
8.42299e-09  0.915065873
8.675632e-09  0.90164331
8.935694e-09  0.888425543
9.203714e-09  0.875393842
9.479605e-09  0.862560985
9.76394e-09  0.849908772
1.0056625e-08  0.837449619
1.0358267e-08  0.825165831
1.0668767e-08  0.813069508
1.098877e-08  0.801143428
1.131817e-08  0.789399353
1.1657652e-08  0.777820547
1.2007102e-08  0.76641847
1.2367248e-08  0.755176832
1.2737969e-08  0.744106768
1.3120036e-08  0.733192491
1.3513323e-08  0.722444739
1.3918647e-08  0.711848243
1.4335873e-08  0.701413434
1.4765869e-08  0.691125461
1.5208491e-08  0.680994463
1.5664661e-08  0.671005999
1.6134225e-08  0.661169948
1.6618162e-08  0.651472262
1.7116308e-08  0.641922535
1.7629702e-08  0.632507144
1.8158171e-08  0.62323539
1.8702814e-08  0.614094057
1.926345e-08  0.605092159
1.9841246e-08  0.596216877
2.0436008e-08  0.58747697
2.1048973e-08  0.578859992
2.1679938e-08  0.570374422
2.2330215e-08  0.562008202
2.2999587e-08  0.553769586
2.3689445e-08  0.545646838
2.4399561e-08  0.53764798
2.5268741e-08  0.52832008
2.53e-08  0.527993596
2.6058858e-08  0.520248821
2.684e-08  0.512622191
2.7645049e-08  0.505102871
2.8473738e-08  0.497698274
2.9327791e-08  0.490397885
3.0206922e-08  0.483208923
3.111296e-08  0.476121165
3.2045604e-08  0.469141622
3.3006792e-08  0.462260376
3.3996206e-08  0.455484222
3.5015901e-08  0.448803546
3.6065539e-08  0.442224934
3.7147303e-08  0.435739033
3.8260833e-08  0.429352247
3.9408443e-08  0.423055488
4.0589752e-08  0.416854957
4.1807217e-08  0.410741825
4.3060432e-08  0.404722102
4.4352004e-08  0.398787195
4.5681502e-08  0.392942947
4.705169e-08  0.387181011
4.8462114e-08  0.381507039
4.9915706e-08  0.375912936
5.1411981e-08  0.370404188
5.2954052e-08  0.364972937
5.4541406e-08  0.359624512
5.6177342e-08  0.354351298
5.7861316e-08  0.349158475
5.9596832e-08  0.344038654
6.1383309e-08  0.338996881
6.3224464e-08  0.334025969
6.5119683e-08  0.329130843
6.7072909e-08  0.324304533
6.9083489e-08  0.319551797
7.1155607e-08  0.31486588
7.328857e-08  0.310251851
7.5486817e-08  0.305702237
7.7749613e-08  0.301221988
8.0081665e-08  0.296804714
8.2482197e-08  0.292454773
8.49562e-08  0.288165961
8.7502851e-08  0.283942501
9.0127446e-08  0.279778371
9.2829111e-08  0.27567767
9.5613464e-08  0.271634548
9.8479577e-08  0.267652992
1.01433412e-07  0.263727326
1.04473985e-07  0.259861429
1.07607619e-07  0.256049801
1.1083327e-07  0.25229622
1.14157646e-07  0.248595356
1.17579641e-07  0.244950881
1.21106371e-07  0.241357626
1.24736661e-07  0.237819157
1.28478062e-07  0.23433045
1.32329326e-07  0.230894965
1.36298464e-07  0.227507813
1.40384153e-07  0.224172347
1.4459489e-07  0.220883816
1.48929273e-07  0.217645468
1.53396316e-07  0.214452693
1.57994531e-07  0.211308645
1.62733481e-07  0.208208859
1.67611588e-07  0.205156409
1.72638996e-07  0.202146972
1.7781403e-07  0.199183543
1.83147454e-07  0.196261923
1.8863749e-07  0.193385015
1.94295557e-07  0.190548726
2.0011977e-07  0.187755852
2.06122241e-07  0.185002405
2.12300971e-07  0.182291089
2.18668809e-07  0.179618029
2.25223636e-07  0.176985847
2.31979082e-07  0.174390775
2.38932897e-07  0.171835354
2.46099545e-07  0.169315919
2.53476636e-07  0.16683494
2.61079514e-07  0.164388871
2.68905645e-07  0.161980127
2.76971307e-07  0.159605275
2.85273811e-07  0.157266657
2.93830426e-07  0.154960936
3.02638301e-07  0.152690379
3.11715753e-07  0.150451745
3.21059758e-07  0.148247233
3.30689751e-07  0.146073699
3.40602522e-07  0.143933299
3.50818688e-07  0.141823012
3.61334845e-07  0.139744954
3.72172865e-07  0.13769618
3.83329135e-07  0.135678687
3.9482686e-07  0.133689541
4.06662208e-07  0.131730649
4.18859794e-07  0.129799202
4.31415555e-07  0.127897148
4.44355602e-07  0.126021849
4.57675626e-07  0.12417521
4.71403329e-07  0.122354581
4.85534136e-07  0.120561662
5.00097438e-07  0.118793769
5.15088382e-07  0.11705256
5.30538145e-07  0.115335557
5.46441581e-07  0.113644553
5.62831765e-07  0.111977288
5.79703235e-07  0.110335526
5.97091082e-07  0.108716942
6.14989512e-07  0.107123049
6.33435749e-07  0.105551497
6.52423648e-07  0.10400386
6.71992699e-07  0.102478042
6.92136383e-07  0.100975612
7.12896594e-07  0.099494371
7.34266415e-07  0.098035678
7.5629029e-07  0.09659745
7.78960882e-07  0.095181198
8.02325342e-07  0.093784953
8.26375882e-07  0.092409999
8.51162526e-07  0.091054249
8.76677012e-07  0.089719081
9.02972407e-07  0.088402854
9.30039949e-07  0.087107204
9.57935933e-07  0.085830602
9.86651065e-07  0.084574685
1.01195589e-06  0.083513758
1.04050974e-06  0.082364691
1.06986929e-06  0.081232487
1.10005725e-06  0.080116475
1.13109702e-06  0.079016178
1.16301262e-06  0.077931228
1.19582876e-06  0.076861205
1.22957087e-06  0.075805765
1.26426505e-06  0.074764831
1.29993819e-06  0.073738416
1.33661789e-06  0.072726216
1.37433257e-06  0.071727717
1.41311143e-06  0.070742725
1.45298448e-06  0.069771335
1.5150601e-06  0.068336173
1.57948201e-06  0.066937087
1.64696196e-06  0.065559919
1.71699247e-06  0.064216816
1.79034725e-06  0.062895577
1.86647465e-06  0.061608551
1.94621574e-06  0.060341628
2.02897083e-06  0.059105473
2.11565421e-06  0.057888753
2.20561399e-06  0.05670338
2.29984408e-06  0.055538639
2.3976358e-06  0.054401335
2.5000696e-06  0.053280852
2.60637512e-06  0.052188666
2.71772686e-06  0.051115415
2.83328738e-06  0.050068912
2.95433346e-06  0.049039285
3.12340751e-06  0.047703748
3.30215753e-06  0.046401852
3.49113727e-06  0.045134927
3.69093216e-06  0.043906001
3.90216115e-06  0.042707807
4.1254786e-06  0.041544095
4.42225446e-06  0.040133874
4.74129723e-06  0.038767212
5.08237344e-06  0.037453864
5.44904038e-06  0.036179237
5.84102973e-06  0.034953775
6.34955257e-06  0.033534439
6.90234765e-06  0.032172884
7.50326933e-06  0.030865672
8.27158159e-06  0.02940381
8.99170944e-06  0.028212551
9.77453196e-06  0.027070143
1.06255074e-05  0.025987651
1.15505691e-05  0.024965613
1.29104583e-05  0.023652387
1.42296959e-05  0.022579501
1.52562948e-05  0.021833026
1.68152385e-05  0.020822536
1.82791812e-05  0.020004628
1.98705754e-05  0.019214522
2.16005172e-05  0.018454294
2.31588827e-05  0.017845349
2.55253416e-05  0.017019861
2.774759e-05  0.01635808
3.01633085e-05  0.015708441
3.32519408e-05  0.014981234
3.61468706e-05  0.014393231
3.92938344e-05  0.013825949
4.27147744e-05  0.01327493
4.70795255e-05  0.012668725
5.04760695e-05  0.012251089
5.56338979e-05  0.011734667
6.13306421e-05  0.011231894
6.75976302e-05  0.010756863
7.45194247e-05  0.010298455
8.32928588e-05  0.009801892
9.30992203e-05  0.009325458
0.000101204483  0.008988553
0.000113119643  0.008588828
0.0001355332  0.007976853
0.00015149  0.00762429
0.000171714337  0.007279586
0.000194601008  0.00695104
0.00020282165  0.00685264
0.000233097253  0.006563543
0.000260540613  0.006343473
0.000295266352  0.006100703
0.000356184644  0.005848878
0.000398119516  0.005706405
0.000497381947  0.005553932
0.000596939122  0.005530889
0.000599234781  0.005546327
0.000601058119  0.005581779
0.000672479254  0.005644043
0.00074013  0.00573266
0.000857404699  0.005978987
0.00094501743  0.006236717
0.00100720144  0.006459167
0.00107058108  0.006724996
0.00113222144  0.007023308
0.00119701753  0.007382136
0.00124671629  0.00769576
0.00129972794  0.008066562
0.001355256  0.008506531
0.00141288288  0.0090199
0.00145274949  0.009415995
0.00149281  0.009851892
0.001530444  0.010300036
0.001568078  0.010789517
0.001605712  0.01132516
0.001643346  0.011912539
0.00168098  0.012558137
0.0017280225  0.013459414
0.0017656565  0.014265699
0.0018032905  0.015159903
0.0018409245  0.016154867
0.0018785585  0.017265871
0.001906784  0.018183114
0.0019350095  0.01919096
0.001963235  0.020286946
0.0019914605  0.021497622
0.002019686  0.022820761
0.0020479115  0.024291128
0.002076137  0.025907111
0.0021043625  0.027715014
0.0021419965  0.030443146
0.0021796305  0.033616137
0.0021984475  0.035399348
0.0022172645  0.037332813
0.0022360815  0.03943327
0.002264307  0.042922545
0.002283124  0.04552762
0.002301941  0.048378476
0.002320758  0.05150131
0.002339575  0.054934221
0.002358392  0.058720902
0.002377209  0.062903469
0.002396026  0.067534431
0.002414843  0.07267415
0.00242895575  0.076908849
0.0024430685  0.081492008
0.00245718125  0.086479751
0.002471294  0.091890534
0.00248540675  0.097791909
0.0024995195  0.104205938
0.00251363225  0.111212539
0.002527745  0.118836314
0.00254185775  0.127168712
0.0025559705  0.136233474
0.00257008325  0.146128746
0.002584196  0.156869359
0.00259830875  0.168547318
0.0026124215  0.181152119
0.0026274751  0.19566366
0.0026444104  0.213270153
0.0026613457  0.232100501
0.0027121516  0.292308567
0.0027309686  0.313432946
0.00274508135  0.32754575
0.0027591941  0.339423857
0.0027686026  0.3457725
0.0027780111  0.350659468
0.0027874196  0.353941844
0.0028005915  0.35566523
0.00281263438  0.354207451
0.00282260739  0.350821772
0.0028325804  0.345599839
0.0028419889  0.339115554
0.00285610165  0.326931084
0.0028702144  0.312387233
0.0028890314  0.290528149
0.0029360739  0.232434642
0.0029530092  0.212605658
0.0029699445  0.194028632
0.0029868798  0.176874714
0.00300287425  0.16204834
0.003016987  0.150024836
0.00303109975  0.138996567
0.0030452125  0.128873163
0.00305932525  0.119627406
0.003073438  0.111162168
0.00308755075  0.103441173
0.0031016635  0.096374463
0.00311577625  0.089925871
0.003129889  0.084017638
0.00314400175  0.078617501
0.0031581145  0.073660616
0.00317222725  0.069119718
0.00318634  0.064941748
0.00320045275  0.061104311
0.0032145655  0.057564395
0.00322867825  0.054303879
0.003242791  0.051293441
0.003261608  0.047628162
0.003280425  0.044311316
0.003299242  0.041307525
0.003318059  0.038580763
0.003336876  0.036099732
0.003355693  0.033837187
0.00337451  0.031769368
0.003393327  0.029875508
0.003412144  0.02813742
0.003430961  0.026539137
0.003449778  0.02506661
0.003468595  0.02370745
0.003487412  0.022450706
0.003525046  0.020206749
0.00356268  0.018269375
0.0035909055  0.016989454
0.003619131  0.015827405
0.0036473565  0.014781392
0.003675582  0.013826516
0.0037038075  0.012961917
0.003732033  0.012168768
0.0037602585  0.011446792
0.003788484  0.010781541
0.0038167095  0.010173079
0.003844935  0.00961017
0.003901386  0.008613936
0.00393902  0.008029516
0.003976654  0.007500304
0.004014288  0.007019697
0.004051922  0.006582038
0.004089556  0.006182459
0.00412719  0.005816756
0.004164824  0.005481279
0.004202458  0.005172852
0.004240092  0.004888701
0.004277726  0.004626394
0.00431536  0.004383793
0.004390628  0.003950378
0.004465896  0.00357581
0.00450353  0.003407384
0.004559981  0.003176205
0.004616432  0.002965233
0.004672883  0.002775175
0.004729334  0.002600831
0.004785785  0.002442857
0.004842236  0.002297275
0.004898687  0.002164677
0.004992772  0.001965947
0.00506804  0.001825528
0.005143308  0.001698966
0.005237393  0.001557859
0.005312661  0.001456484
0.005369112  0.001386671
0.00544438  0.001300787
0.00551494375  0.001227246
0.00563255  0.001116789
0.005726635  0.001038561
0.00582072  0.000967921
0.005914805  0.000903969
0.00600889  0.000845905
0.006102975  0.000793045
0.00619706  0.000744801
0.006291145  0.000700663
0.00638523  0.000660193
0.006479315  0.000623005
0.0065734  0.000588764
0.006667485  0.000557181
0.00676157  0.000527998
0.00694974  0.000475984
0.00713791  0.000431347
0.007231995  0.000411586
0.00734960125  0.000389688
0.007420165  0.000378877
0.00745544688  0.000375153
0.00748484844  0.000373737
0.00750689961  0.000375157
0.0075216738  0.000378322
0.00753280949  0.000382712
0.00754023329  0.000387372
0.00754765708  0.000394076
0.00755322492  0.000401007
0.00755879276  0.000410291
0.00756250466  0.00041837
0.00756621655  0.000428512
0.00756992845  0.000441388
0.00757271237  0.000453415
0.00757568189  0.000469219
0.00757772343  0.000482391
0.00757976498  0.000497979
0.00758180652  0.000516608
0.00758333769  0.000533068
0.00758486884  0.000552163
0.0075864  0.000574489
0.00758793115  0.000600828
0.00758895192  0.000621122
0.00758997269  0.000644061
0.00759090067  0.000667626
0.00759182864  0.000694256
0.00759275662  0.000724536
0.00759368459  0.00075922
0.00759461257  0.0007993
0.00759530855  0.000833707
0.00759600453  0.000872702
0.00759670051  0.000917384
0.00759739648  0.000969334
0.00759788368  0.00101125
0.00759837086  0.001059021
0.00759885805  0.00111424
0.00759918284  0.001156242
0.00759950763  0.001203358
0.00759983242  0.001256642
0.00760015721  0.001317397
0.00760048201  0.001387243
0.0076007256  0.001446773
0.00760096919  0.001513537
0.00760121279  0.001588711
0.00760145638  0.001673655
0.00760169997  0.001769954
0.00760194356  0.001879435
0.00760218716  0.00200421
0.00760234955  0.002097059
0.00760251195  0.002198576
0.00760269754  0.002326316
0.00760290634  0.002486703
0.00760306293  0.002619863
0.00760321953  0.00276522
0.00760337613  0.002923887
0.00760353272  0.003097063
0.00760368932  0.003286073
0.00760384591  0.003492286
0.00760400251  0.003717227
0.0076041591  0.003962463
0.00760431569  0.004229714
0.00760447229  0.004520812
0.00760462889  0.004837668
0.00760478548  0.005182299
0.00760494208  0.005556904
0.00760509867  0.005963709
0.00760525527  0.006405155
0.00760541187  0.006883724
0.00760556846  0.007402
0.00760572505  0.007962747
0.00760588165  0.008568846
0.00760600924  0.009098208
0.00760616004  0.009767421
0.00760631084  0.010486462
0.00760646164  0.011258186
0.00760661243  0.012085456
0.00760676323  0.012971354
0.00760691402  0.013918778
0.00760706482  0.014930904
0.00760721561  0.016010666
0.00760736641  0.017161279
0.00760751721  0.018385735
0.00760766801  0.019687066
0.0076078188  0.021068165
0.00760804499  0.023295948
0.00760827119  0.025719522
0.007608452  0.027803471
0.00760866284  0.030404137
0.00760887368  0.033194114
0.00760908452  0.036178486
0.00760929536  0.039361348
