E(MeV)  pendfb7/O16:102
1e-11  0.009556856
1.02999e-11  0.009416696
1.06087e-11  0.009278634
1.09269e-11  0.009142534
1.12544e-11  0.009008512
1.1592e-11  0.00887638
1.19395e-11  0.008746254
1.22976e-11  0.008617968
1.26662e-11  0.00849163
1.30462e-11  0.008367063
1.34372e-11  0.00824442
1.38403e-11  0.008123483
1.42552e-11  0.008004406
1.46827e-11  0.007887005
1.51229e-11  0.007771379
1.55765e-11  0.007657378
1.60434e-11  0.007545137
1.65246e-11  0.007434463
1.70199e-11  0.007325481
1.75304e-11  0.007218038
1.80559e-11  0.007112219
1.85975e-11  0.007007898
1.9155e-11  0.006905166
1.97295e-11  0.006803886
2.03209e-11  0.006704141
2.09305e-11  0.006605797
2.15579e-11  0.006508968
2.22045e-11  0.006413492
2.28701e-11  0.006319477
2.35561e-11  0.006226778
2.42622e-11  0.006135503
2.49899e-11  0.006045508
2.5739e-11  0.005956884
2.6511e-11  0.005869512
2.73057e-11  0.005783466
2.81247e-11  0.005698638
2.89678e-11  0.005615096
2.98367e-11  0.005532732
3.07311e-11  0.005451628
3.16528e-11  0.005371666
3.26017e-11  0.005292918
3.35795e-11  0.005215284
3.45861e-11  0.00513883
3.56235e-11  0.005063453
3.66913e-11  0.004989226
3.77919e-11  0.004916043
3.89247e-11  0.004843979
4.00923e-11  0.004772925
4.12941e-11  0.004702959
4.25327e-11  0.004633974
4.38076e-11  0.004566046
4.51216e-11  0.004499071
4.64742e-11  0.004433118
4.78681e-11  0.004368094
4.9303e-11  0.004304059
5.07818e-11  0.004240929
5.23041e-11  0.004178758
5.38729e-11  0.004117465
5.54878e-11  0.004057105
5.71521e-11  0.003997597
5.88653e-11  0.003938994
6.0631e-11  0.003881215
6.24484e-11  0.003824321
6.43215e-11  0.003768226
6.62496e-11  0.003712986
6.82368e-11  0.003658522
7.02822e-11  0.003604892
7.23903e-11  0.003552016
7.45603e-11  0.003499946
7.67967e-11  0.003448608
7.90987e-11  0.003398054
8.14712e-11  0.003348212
8.39134e-11  0.003299129
8.64304e-11  0.003250737
8.90212e-11  0.003203084
9.16913e-11  0.003156102
9.44399e-11  0.003109835
9.72725e-11  0.003064221
1.00188e-10  0.003019301
1.03193e-10  0.00297502
1.06287e-10  0.002931402
1.09475e-10  0.002888402
1.12756e-10  0.002846062
1.16139e-10  0.00280431
1.1962e-10  0.002763207
1.23208e-10  0.002722674
1.26901e-10  0.002682763
1.30707e-10  0.002643417
1.34626e-10  0.002604662
1.38664e-10  0.002566452
1.4282e-10  0.002528834
1.47104e-10  0.002491741
1.51513e-10  0.002455214
1.56058e-10  0.002419201
1.60736e-10  0.002383737
1.65557e-10  0.002348774
1.7052e-10  0.002314341
1.75635e-10  0.002280392
1.80899e-10  0.002246966
1.86325e-10  0.00221401
1.91911e-10  0.002181551
1.97667e-10  0.002149552
2.03592e-10  0.002118041
2.09699e-10  0.002086973
2.15985e-10  0.00205638
2.22463e-10  0.002026218
2.29132e-10  0.001996514
2.36004e-10  0.001967231
2.43079e-10  0.001938391
2.5037e-10  0.001909958
2.57875e-10  0.00188196
2.6561e-10  0.001854355
2.73572e-10  0.001827172
2.81777e-10  0.001800372
2.90224e-10  0.001773979
2.98929e-10  0.001747958
3.0789e-10  0.001722334
3.17125e-10  0.00169707
3.26631e-10  0.001672193
3.36428e-10  0.001647665
3.46513e-10  0.001623512
3.56906e-10  0.001599698
3.67605e-10  0.001576248
3.78631e-10  0.001553127
3.89981e-10  0.00153036
4.01678e-10  0.001507912
4.13719e-10  0.001485807
4.26128e-10  0.001464013
4.38901e-10  0.001442552
4.52066e-10  0.001421393
4.65617e-10  0.001400556
4.79583e-10  0.001380013
4.93959e-10  0.001359783
5.08775e-10  0.001339838
5.24026e-10  0.001320196
5.39744e-10  0.001300832
5.55923e-10  0.001281762
5.72598e-10  0.001262962
5.89762e-10  0.001244447
6.07452e-10  0.001226194
6.25661e-10  0.001208219
6.44427e-10  0.001190497
6.63744e-10  0.001173045
6.83653e-10  0.001155839
7.04146e-10  0.001138895
7.25267e-10  0.001122189
7.47007e-10  0.001105739
7.69413e-10  0.00108952
7.92477e-10  0.001073548
8.16247e-10  0.001057802
8.40715e-10  0.001042295
8.65932e-10  0.001027006
8.91889e-10  0.001011951
9.18641e-10  0.000997108
9.46178e-10  0.000982491
9.74558e-10  0.00096808
1.003771e-09  0.000953889
1.033879e-09  0.000939897
1.064871e-09  0.000926119
1.096811e-09  0.000912534
1.129689e-09  0.000899157
1.163573e-09  0.000885968
1.198452e-09  0.000872981
1.234399e-09  0.000860176
1.271402e-09  0.000847566
1.309537e-09  0.000835134
1.348791e-09  0.000822892
1.389247e-09  0.000810822
1.430892e-09  0.000798935
1.47381e-09  0.000787217
1.517989e-09  0.000775677
1.563521e-09  0.000764299
1.610389e-09  0.000753095
1.658691e-09  0.000742049
1.708412e-09  0.000731171
1.759655e-09  0.000720446
1.812403e-09  0.000709885
1.866765e-09  0.000699472
1.922723e-09  0.000689218
1.980394e-09  0.000679109
2.039758e-09  0.000669153
2.100939e-09  0.000659338
2.163917e-09  0.000649673
2.228823e-09  0.000640143
2.295634e-09  0.000630759
2.36449e-09  0.000621507
2.435368e-09  0.000612397
2.508415e-09  0.000603414
2.583608e-09  0.000594568
2.661102e-09  0.000585847
2.740871e-09  0.000577259
2.823082e-09  0.000568792
2.907706e-09  0.000560454
2.994921e-09  0.000552233
3.084697e-09  0.000544138
3.177221e-09  0.000536156
3.272461e-09  0.000528297
3.370617e-09  0.000520547
3.471655e-09  0.000512917
3.575785e-09  0.000505393
3.682973e-09  0.000497984
3.793441e-09  0.00049068
3.907154e-09  0.000483487
4.024346e-09  0.000476395
4.14498e-09  0.000469412
4.269306e-09  0.000462526
4.397283e-09  0.000455746
4.529177e-09  0.000449061
4.664944e-09  0.000442478
4.804866e-09  0.000435988
4.948897e-09  0.000429597
5.097336e-09  0.000423295
5.250134e-09  0.00041709
5.407609e-09  0.000410972
5.569708e-09  0.000404948
5.736768e-09  0.000399008
5.908733e-09  0.000393159
6.085962e-09  0.000387392
6.268395e-09  0.000381713
6.456412e-09  0.000376114
6.649949e-09  0.0003706
6.849411e-09  0.000365164
7.054729e-09  0.000359811
7.266331e-09  0.000354534
7.484147e-09  0.000349336
7.70863e-09  0.000344212
7.939704e-09  0.000339166
8.17785e-09  0.000334192
8.42299e-09  0.000329293
8.675632e-09  0.000324462
8.935694e-09  0.000319706
9.203714e-09  0.000315017
9.479605e-09  0.000310399
9.76394e-09  0.000305846
1.0056625e-08  0.000301362
1.0358267e-08  0.000296942
1.0668767e-08  0.000292589
1.098877e-08  0.000288297
1.131817e-08  0.000284071
1.1657652e-08  0.000279904
1.2007102e-08  0.000275801
1.2367248e-08  0.000271756
1.2737969e-08  0.000267772
1.3120036e-08  0.000263844
1.3513323e-08  0.000259976
1.3918647e-08  0.000256163
1.4335873e-08  0.000252408
1.4765869e-08  0.000248706
1.5208491e-08  0.00024506
1.5664661e-08  0.000241465
1.6134225e-08  0.000237926
1.6618162e-08  0.000234436
1.7116308e-08  0.000230999
1.7629702e-08  0.000227611
1.8158171e-08  0.000224274
1.8702814e-08  0.000220984
1.926345e-08  0.000217745
1.9841246e-08  0.000214551
2.0436008e-08  0.000211406
2.1048973e-08  0.000208305
2.1679938e-08  0.000205251
2.2330215e-08  0.000202241
2.2999587e-08  0.000199276
2.3689445e-08  0.000196353
2.4399561e-08  0.000193475
2.5268741e-08  0.000190118
2.53e-08  0.000190001
2.6058858e-08  0.000187214
2.684e-08  0.000184469
2.7645049e-08  0.000181763
2.8473738e-08  0.000179099
2.9327791e-08  0.000176472
3.0206922e-08  0.000173885
3.111296e-08  0.000171334
3.2045604e-08  0.000168823
3.3006792e-08  0.000166346
3.3996206e-08  0.000163908
3.5015901e-08  0.000161504
3.6065539e-08  0.000159136
3.7147303e-08  0.000156802
3.8260833e-08  0.000154503
3.9408443e-08  0.000152237
4.0589752e-08  0.000150006
4.1807217e-08  0.000147805
4.3060432e-08  0.000145639
4.4352004e-08  0.000143503
4.5681502e-08  0.000141399
4.705169e-08  0.000139325
4.8462114e-08  0.000137283
4.9915706e-08  0.000135269
5.1411981e-08  0.000133287
5.2954052e-08  0.000131332
5.4541406e-08  0.000129407
5.6177342e-08  0.000127509
5.7861316e-08  0.00012564
5.9596832e-08  0.000123797
6.1383309e-08  0.000121983
6.3224464e-08  0.000120194
6.5119683e-08  0.000118432
6.7072909e-08  0.000116695
6.9083489e-08  0.000114985
7.1155607e-08  0.000113298
7.328857e-08  0.000111638
7.5486817e-08  0.00011
7.7749613e-08  0.000108388
8.0081665e-08  0.000106798
8.2482197e-08  0.000105233
8.49562e-08  0.00010369
8.7502851e-08  0.00010217
9.0127446e-08  0.000100671
9.2829111e-08  9.91955e-05
9.5613464e-08  9.77406e-05
9.8479577e-08  9.63078e-05
1.01433412e-07  9.48952e-05
1.04473985e-07  9.35043e-05
1.07607619e-07  9.21328e-05
1.1083327e-07  9.07822e-05
1.14157646e-07  8.94506e-05
1.17579641e-07  8.81393e-05
1.21106371e-07  8.68465e-05
1.24736661e-07  8.55734e-05
1.28478062e-07  8.43182e-05
1.32329326e-07  8.30821e-05
1.36298464e-07  8.18635e-05
1.40384153e-07  8.06634e-05
1.4459489e-07  7.94802e-05
1.48929273e-07  7.83151e-05
1.53396316e-07  7.71664e-05
1.57994531e-07  7.60352e-05
1.62733481e-07  7.49199e-05
1.67611588e-07  7.38216e-05
1.72638996e-07  7.27388e-05
1.7781403e-07  7.16725e-05
1.83147454e-07  7.06213e-05
1.8863749e-07  6.9586e-05
1.94295557e-07  6.85654e-05
2.0011977e-07  6.75602e-05
2.06122241e-07  6.65693e-05
2.12300971e-07  6.55934e-05
2.18668809e-07  6.46313e-05
2.25223636e-07  6.36838e-05
2.31979082e-07  6.27497e-05
2.38932897e-07  6.18298e-05
2.46099545e-07  6.09229e-05
2.53476636e-07  6.00298e-05
2.61079514e-07  5.91492e-05
2.68905645e-07  5.82822e-05
2.76971307e-07  5.74273e-05
2.85273811e-07  5.65854e-05
2.93830426e-07  5.57554e-05
3.02638301e-07  5.49381e-05
3.11715753e-07  5.41323e-05
3.21059758e-07  5.33387e-05
3.30689751e-07  5.25563e-05
3.40602522e-07  5.17859e-05
3.50818688e-07  5.10263e-05
3.61334845e-07  5.02783e-05
3.72172865e-07  4.95408e-05
3.83329135e-07  4.88146e-05
3.9482686e-07  4.80987e-05
4.06662208e-07  4.73936e-05
4.18859794e-07  4.66984e-05
4.31415555e-07  4.60138e-05
4.44355602e-07  4.53389e-05
4.57675626e-07  4.46742e-05
4.71403329e-07  4.40189e-05
4.85534136e-07  4.33736e-05
5.00097438e-07  4.27374e-05
5.15088382e-07  4.21109e-05
5.30538145e-07  4.14932e-05
5.46441581e-07  4.08849e-05
5.62831765e-07  4.02852e-05
5.79703235e-07  3.96947e-05
5.97091082e-07  3.91125e-05
6.14989512e-07  3.85391e-05
6.33435749e-07  3.79738e-05
6.52423648e-07  3.74172e-05
6.71992699e-07  3.68683e-05
6.92136383e-07  3.63278e-05
7.12896594e-07  3.5795e-05
7.34266415e-07  3.52702e-05
7.5629029e-07  3.47529e-05
7.78960882e-07  3.42435e-05
8.02325342e-07  3.37413e-05
8.26375882e-07  3.32467e-05
8.51162526e-07  3.2759e-05
8.76677012e-07  3.22787e-05
9.02972407e-07  3.18052e-05
9.30039949e-07  3.1339e-05
9.57935933e-07  3.08793e-05
9.86651065e-07  3.04267e-05
1.01195589e-06  3.00439e-05
1.04050974e-06  2.96288e-05
1.06986929e-06  2.92194e-05
1.10005725e-06  2.88158e-05
1.13109702e-06  2.84177e-05
1.16301262e-06  2.80251e-05
1.19582876e-06  2.76378e-05
1.22957087e-06  2.7256e-05
1.26426505e-06  2.68794e-05
1.29993819e-06  2.65082e-05
1.33661789e-06  2.61421e-05
1.37433257e-06  2.5781e-05
1.41311143e-06  2.54248e-05
1.45298448e-06  2.50736e-05
1.5150601e-06  2.45547e-05
1.57948201e-06  2.4049e-05
1.64696196e-06  2.35514e-05
1.71699247e-06  2.30661e-05
1.79034725e-06  2.25884e-05
1.86647465e-06  2.2123e-05
1.94621574e-06  2.16654e-05
2.02897083e-06  2.12191e-05
2.11565421e-06  2.07796e-05
2.20561399e-06  2.03513e-05
2.29984408e-06  1.99301e-05
2.3976358e-06  1.95196e-05
2.5000696e-06  1.91159e-05
2.60637512e-06  1.87224e-05
2.71772686e-06  1.83347e-05
2.83328738e-06  1.79566e-05
2.95433346e-06  1.75852e-05
3.12340751e-06  1.7103e-05
3.30215753e-06  1.66341e-05
3.49113727e-06  1.61781e-05
3.69093216e-06  1.57336e-05
3.90216115e-06  1.5302e-05
4.1254786e-06  1.48824e-05
4.36157631e-06  1.4474e-05
4.67533642e-06  1.39805e-05
5.01263774e-06  1.35015e-05
5.37323346e-06  1.304e-05
5.76088444e-06  1.25954e-05
6.17530702e-06  1.21656e-05
6.62082346e-06  1.17503e-05
7.19723551e-06  1.12692e-05
7.82383027e-06  1.08078e-05
8.50497668e-06  1.03685e-05
9.11680189e-06  1.00153e-05
9.91051502e-06  9.60492e-06
1.0925322e-05  9.14591e-06
1.20417112e-05  8.71333e-06
1.30900683e-05  8.35751e-06
1.42296959e-05  8.01559e-06
1.546854e-05  7.69126e-06
1.68152385e-05  7.37178e-06
1.87949557e-05  6.97455e-06
2.1007752e-05  6.59623e-06
2.31588827e-05  6.28242e-06
2.55253416e-05  5.9851e-06
2.774759e-05  5.74e-06
3.01633085e-05  5.50677e-06
3.32519408e-05  5.24224e-06
3.87471795e-05  4.85728e-06
4.33090214e-05  4.59391e-06
5.04760695e-05  4.25548e-06
5.48705403e-05  4.0812e-06
5.96475957e-05  3.91505e-06
6.5742604e-05  3.72789e-06
7.14661865e-05  3.57792e-06
7.76880669e-05  3.43055e-06
8.56430918e-05  3.26632e-06
9.30992203e-05  3.1337e-06
0.000101204483  3.00549e-06
0.000110015393  2.8824e-06
0.000119593386  2.7651e-06
0.000131813873  2.6328e-06
0.000153627259  2.43876e-06
0.000171714337  2.30686e-06
0.000186663869  2.21319e-06
0.000202914915  2.12265e-06
0.000220580784  2.03572e-06
0.000239784653  1.95291e-06
0.000264286721  1.85941e-06
0.000308022543  1.72242e-06
0.000344170963  1.6295e-06
0.000401048895  1.5095e-06
0.000438974357  1.44293e-06
0.000476119647  1.38566e-06
0.000528430885  1.31498e-06
0.000619884932  1.21439e-06
0.000688341928  1.15223e-06
0.000739302673  1.11189e-06
0.000803666717  1.06638e-06
0.000873634326  1.02271e-06
0.000949693347  9.81044e-07
0.00105686177  9.2983e-07
0.00123976986  8.58707e-07
0.00137668384  8.14752e-07
0.00147860534  7.86227e-07
0.00160733343  7.54051e-07
0.00174726865  7.23166e-07
0.00189938669  6.93703e-07
0.00211372353  6.57489e-07
0.00247953973  6.07197e-07
0.00275336772  5.76117e-07
0.0029572107  5.55946e-07
0.00321466687  5.33194e-07
0.0034945373  5.11356e-07
0.00379877339  4.90522e-07
0.00422744708  4.64916e-07
0.00495907946  4.29354e-07
0.00550673542  4.07376e-07
0.00591442139  3.93114e-07
0.00642933374  3.77025e-07
0.0070235897  3.60732e-07
0.00761791436  3.46415e-07
0.00845489418  3.28745e-07
0.00991815891  3.03599e-07
0.0110134708  2.88058e-07
0.0118288428  2.77973e-07
0.0128586675  2.66597e-07
0.0140471794  2.55076e-07
0.0152358287  2.44952e-07
0.0169097883  2.32458e-07
0.0198363178  2.14676e-07
0.0220269417  2.03688e-07
0.0236576856  1.96556e-07
0.025717335  1.88512e-07
0.0280943589  1.80366e-07
0.0304716575  1.73207e-07
0.0338195767  1.64372e-07
0.0396726356  1.51799e-07
0.0440538833  1.4403e-07
0.047315371  1.38987e-07
0.0515494355  1.33157e-07
0.0561887176  1.27538e-07
0.0609433149  1.22476e-07
0.0676391532  1.16229e-07
0.0716814009  1.12929e-07
0.0793452711  1.07339e-07
0.0881077667  1.01844e-07
0.0946307421  9.82784e-08
0.103098871  9.41561e-08
0.112377435  9.01831e-08
0.12188663  8.66037e-08
0.135278308  8.21862e-08
0.143362803  7.98529e-08
0.158690543  7.58997e-08
0.176215533  7.20146e-08
0.189261484  6.94933e-08
0.206197742  6.65784e-08
0.22475487  6.3769e-08
0.24377326  6.1238e-08
0.270556614  5.81145e-08
0.286725605  5.64645e-08
0.317381085  5.36692e-08
0.352431067  5.09221e-08
0.378522969  4.91392e-08
0.412395484  4.7078e-08
0.449509741  4.50915e-08
0.48754652  4.33019e-08
0.541113226  4.10931e-08
0.573451208  3.99265e-08
0.634762169  3.79499e-08
0.704862133  3.60074e-08
0.757045937  3.47467e-08
0.824790968  3.32892e-08
0.899019482  3.18845e-08
0.975093038  3.0619e-08
1.08222645  2.90573e-08
1.14690242  2.82323e-08
1.26952434  2.68346e-08
1.40972427  2.5461e-08
1.51409188  2.45696e-08
1.64958193  2.3539e-08
1.79803897  2.25458e-08
1.95018607  2.16509e-08
2.16445291  2.05466e-08
2.29380484  1.99632e-08
2.53904869  1.89749e-08
2.81944854  1.80036e-08
3.02818376  1.73733e-08
3.29916388  1.66446e-08
3.59607793  1.59423e-08
3.90037216  1.53095e-08
4.32890582  1.45286e-08
4.58760967  1.41161e-08
5.07809736  1.34173e-08
5.63889707  1.27305e-08
6.0563675  1.22848e-08
6.59832775  1.17695e-08
7.19215585  1.12729e-08
7.8007443  1.08254e-08
8.65781161  1.02733e-08
9.1752193  9.98164e-09
10.1561946  9.48747e-09
11.2777941  9.00183e-09
12.112735  8.68667e-09
13.1966555  8.32251e-09
14.4570492  7.95119e-09
15.7339701  7.62195e-09
17.2275137  7.28374e-09
20  6.75772e-09
29.9986133  6.75767e-09
29.9991333  6.73973e-09
29.9992489  6.70489e-09
29.9993356  6.64844e-09
29.9994223  6.54666e-09
29.9994801  6.44244e-09
29.9995378  6.30074e-09
29.9995956  6.11385e-09
29.999639  5.94026e-09
29.9996823  5.73663e-09
29.9997257  5.50121e-09
29.9997689  5.23609e-09
29.9998123  4.94045e-09
29.9998556  4.61925e-09
29.9999134  4.15723e-09
30.0000747  2.78298e-09
30.0001134  2.46284e-09
30.0001522  2.15535e-09
30.0001845  1.91252e-09
30.0002167  1.68433e-09
30.0002426  1.51187e-09
30.0002684  1.35052e-09
30.0002879  1.23574e-09
30.0003072  1.12832e-09
30.0003266  1.02662e-09
30.000346  9.312e-10
30.0003654  8.4201e-10
30.0003847  7.5939e-10
30.0004041  6.8235e-10
30.0004234  6.1152e-10
30.0004364  5.6699e-10
30.0004493  5.2525e-10
30.0004622  4.8588e-10
30.0004751  4.4882e-10
30.0004881  4.1372e-10
30.000501  3.8106e-10
30.0005139  3.5046e-10
30.0005268  3.2184e-10
30.0005398  2.9493e-10
30.0005527  2.7005e-10
30.0005656  2.469e-10
30.0005785  2.2541e-10
30.0005914  2.0547e-10
30.0006043  1.8702e-10
30.0006172  1.6998e-10
30.0006301  1.5425e-10
30.0006399  1.4314e-10
30.0006496  1.3282e-10
30.0006593  1.2313e-10
30.0006689  1.1415e-10
30.0006786  1.0565e-10
30.0006947  9.2732e-11
30.0007076  8.339e-11
30.0007334  6.7125e-11
30.0008367  2.647e-11
30.0016634  3.8651e-16
30.0033167  0
150  0
