E(MeV)  pendfb7/Pu241:102
1e-11  22600.1715
1.02999e-11  22268.6444
1.06087e-11  21942.0802
1.09269e-11  21620.1532
1.12544e-11  21303.1429
1.1592e-11  20990.5997
1.19395e-11  20682.802
1.22976e-11  20379.3551
1.26662e-11  20080.5159
1.30462e-11  19785.8623
1.34372e-11  19495.7588
1.38403e-11  19209.6921
1.42552e-11  18928.0203
1.46827e-11  18650.3127
1.51229e-11  18376.8048
1.55765e-11  18107.1382
1.60434e-11  17841.6312
1.65246e-11  17579.8308
1.70199e-11  17322.0322
1.75304e-11  17067.8725
1.80559e-11  16817.5542
1.85975e-11  16570.7764
1.9155e-11  16327.757
1.97295e-11  16088.1692
2.03209e-11  15852.2128
2.09305e-11  15619.5693
2.15579e-11  15390.5067
2.22045e-11  15164.6431
2.28701e-11  14942.2356
2.35561e-11  14722.9372
2.42622e-11  14507.0081
2.49899e-11  14294.1047
2.5739e-11  14084.4443
2.6511e-11  13877.7419
2.73057e-11  13674.1754
2.81247e-11  13473.4901
2.89678e-11  13275.8432
2.98367e-11  13080.983
3.07311e-11  12889.1
3.16528e-11  12699.9183
3.26017e-11  12513.6082
3.35795e-11  12329.9286
3.45861e-11  12149.0401
3.56235e-11  11970.6986
3.66913e-11  11795.0772
3.77919e-11  11621.9215
3.89247e-11  11451.4109
4.00923e-11  11283.2885
4.12941e-11  11117.7408
4.25327e-11  10954.5086
4.38076e-11  10793.7759
4.51216e-11  10635.2967
4.64742e-11  10479.2334
4.78681e-11  10325.3667
4.9303e-11  10173.8386
5.07818e-11  10024.4474
5.23041e-11  9877.32489
5.38729e-11  9732.27487
5.54878e-11  9589.43355
5.71521e-11  9448.60283
5.88653e-11  9309.91324
6.0631e-11  9173.17135
6.24484e-11  9038.51993
6.43215e-11  8905.75923
6.62496e-11  8775.01672
6.82368e-11  8646.11049
7.02822e-11  8519.17361
7.23903e-11  8394.01698
7.45603e-11  8270.76726
7.67967e-11  8149.24652
7.90987e-11  8029.58081
8.14712e-11  7911.59575
8.39134e-11  7795.40377
8.64304e-11  7680.84357
8.90212e-11  7568.03167
9.16913e-11  7456.80347
9.44399e-11  7347.26608
9.72725e-11  7239.26975
1.00188e-10  7132.91427
1.03193e-10  7028.06999
1.06287e-10  6924.78914
1.09475e-10  6822.96867
1.12756e-10  6722.70902
1.16139e-10  6623.83687
1.1962e-10  6526.49748
1.23208e-10  6430.50499
1.26901e-10  6335.9833
1.30707e-10  6242.79252
1.34626e-10  6151.00017
1.38664e-10  6060.49434
1.4282e-10  5971.3866
1.47104e-10  5883.51592
1.51513e-10  5796.98583
1.56058e-10  5711.66782
1.60736e-10  5627.64561
1.65557e-10  5544.80596
1.7052e-10  5463.21817
1.75635e-10  5382.77187
1.80899e-10  5303.55995
1.86325e-10  5225.45824
1.91911e-10  5148.53163
1.97667e-10  5072.68818
2.03592e-10  4997.99789
2.09699e-10  4924.35173
2.15985e-10  4851.82734
2.22463e-10  4780.31845
2.29132e-10  4709.89241
2.36004e-10  4640.45744
2.43079e-10  4572.06922
2.5037e-10  4504.64039
2.57875e-10  4438.2375
2.6561e-10  4372.76026
2.73572e-10  4308.28045
2.81777e-10  4244.70269
2.90224e-10  4182.08466
2.98929e-10  4120.344
3.0789e-10  4059.53997
3.17125e-10  3999.58306
3.26631e-10  3940.53951
3.36428e-10  3882.31765
3.46513e-10  3824.97941
3.56906e-10  3768.44142
3.67605e-10  3712.75884
3.78631e-10  3657.85278
3.89981e-10  3603.77989
4.01678e-10  3550.45976
4.13719e-10  3497.94748
4.26128e-10  3446.16616
4.38901e-10  3395.16931
4.52066e-10  3344.88261
4.65617e-10  3295.35573
4.79583e-10  3246.51912
4.93959e-10  3198.41964
5.08775e-10  3150.99037
5.24026e-10  3104.27655
5.39744e-10  3058.21296
5.55923e-10  3012.84434
5.72598e-10  2968.10647
5.89762e-10  2924.04331
6.07452e-10  2880.59172
6.25661e-10  2837.79603
6.44427e-10  2795.59409
6.63744e-10  2754.02732
6.83653e-10  2713.03748
7.04146e-10  2672.66417
7.25267e-10  2632.85013
7.47007e-10  2593.63573
7.69413e-10  2554.96458
7.92477e-10  2516.87312
8.16247e-10  2479.30975
8.40715e-10  2442.30953
8.65932e-10  2405.82092
8.91889e-10  2369.88001
9.18641e-10  2334.43486
9.46178e-10  2299.52154
9.74558e-10  2265.08948
1.003771e-09  2231.1729
1.033879e-09  2197.72355
1.064871e-09  2164.77468
1.096811e-09  2132.27882
1.129689e-09  2100.26911
1.163573e-09  2068.69912
1.198452e-09  2037.60019
1.234399e-09  2006.92841
1.271402e-09  1976.7135
1.309537e-09  1946.91265
1.348791e-09  1917.55618
1.389247e-09  1888.60163
1.430892e-09  1860.07699
1.47381e-09  1831.94283
1.517989e-09  1804.22607
1.563521e-09  1776.88759
1.610389e-09  1749.9551
1.658691e-09  1723.38959
1.708412e-09  1697.21715
1.759655e-09  1671.40109
1.812403e-09  1645.96666
1.866765e-09  1620.87764
1.922723e-09  1596.15944
1.980394e-09  1571.77614
2.039758e-09  1547.75257
2.100939e-09  1524.05424
2.163917e-09  1500.70443
2.228823e-09  1477.67018
2.295634e-09  1454.97465
2.36449e-09  1432.58515
2.435368e-09  1410.52407
2.508415e-09  1388.76018
2.583608e-09  1367.31473
2.661102e-09  1346.15751
2.740871e-09  1325.3098
2.823082e-09  1304.74157
2.907706e-09  1284.47361
2.994921e-09  1264.47704
3.084697e-09  1244.77157
3.177221e-09  1225.3295
3.272461e-09  1206.17017
3.370617e-09  1187.26632
3.471655e-09  1168.63688
3.575785e-09  1150.25536
3.682973e-09  1132.1402
3.793441e-09  1114.26572
3.907154e-09  1096.64963
4.024346e-09  1079.26719
4.14498e-09  1062.13558
4.269306e-09  1045.23077
4.397283e-09  1028.56947
4.529177e-09  1012.12832
4.664944e-09  995.923656
4.804866e-09  979.932744
4.948897e-09  964.171545
5.097336e-09  948.61791
5.250134e-09  933.287409
5.407609e-09  918.158504
5.569708e-09  903.246471
5.736768e-09  888.530265
5.908733e-09  874.024789
6.085962e-09  859.709617
6.268395e-09  845.59916
6.456412e-09  831.673657
6.649949e-09  817.94721
6.849411e-09  804.400524
7.054729e-09  791.048599
7.266331e-09  777.870315
7.484147e-09  764.88033
7.70863e-09  752.060599
7.939704e-09  739.424313
8.17785e-09  726.953913
8.42299e-09  714.662195
8.675632e-09  702.532271
8.935694e-09  690.576581
9.203714e-09  678.778747
9.479605e-09  667.15093
9.76394e-09  655.677218
1.0056625e-08  644.369501
1.0358267e-08  633.212337
1.0668767e-08  622.217379
1.098877e-08  611.369631
1.131817e-08  600.680475
1.1657652e-08  590.135362
1.2007102e-08  579.745425
1.2367248e-08  569.496487
1.2737969e-08  559.399375
1.3120036e-08  549.44033
1.3513323e-08  539.629811
1.3918647e-08  529.954538
1.4335873e-08  520.424737
1.4765869e-08  511.02759
1.5208491e-08  501.773186
1.5664661e-08  492.649222
1.6066415e-08  484.938506
1.6478474e-08  477.326293
1.69011e-08  469.812048
1.7334566e-08  462.395182
1.7779149e-08  455.075184
1.8235134e-08  447.851543
1.8702814e-08  440.723758
1.9182488e-08  433.691374
1.9674465e-08  426.753923
2.017906e-08  419.910995
2.0696596e-08  413.162212
2.1227406e-08  406.507201
2.1771829e-08  399.945652
2.2330215e-08  393.477248
2.2902922e-08  387.1017
2.3490318e-08  380.818716
2.4092778e-08  374.628029
2.471069e-08  368.529342
2.5268741e-08  363.227263
2.53e-08  362.935824
2.5948874e-08  357.014055
2.6614389e-08  351.183639
2.7296974e-08  345.444472
2.7997064e-08  339.796519
2.871511e-08  334.239806
2.9451572e-08  328.774394
3.0206922e-08  323.400365
3.0981645e-08  318.117815
3.1776237e-08  312.92686
3.2591208e-08  307.827643
3.3427081e-08  302.820356
3.4284391e-08  297.905243
3.516369e-08  293.082597
3.6065539e-08  288.352739
3.6990519e-08  283.715985
3.7939222e-08  279.172617
3.8912256e-08  274.722875
3.9910246e-08  270.366989
4.0933832e-08  266.105244
4.1983669e-08  261.938051
4.3060432e-08  257.865973
4.4164811e-08  253.889722
4.5297515e-08  250.010114
4.6459268e-08  246.228026
4.7650818e-08  242.544377
4.8872927e-08  238.960127
5.0126381e-08  235.476292
5.1195903e-08  232.649411
5.2287314e-08  229.896056
5.3402944e-08  227.212308
5.4541406e-08  224.60348
5.570513e-08  222.066007
5.689267e-08  219.60508
5.8106562e-08  217.217517
5.9345297e-08  214.908398
6.0611519e-08  212.674953
6.1903655e-08  210.522172
6.3224464e-08  208.447733
6.4572304e-08  206.456557
6.5950052e-08  204.546815
6.7355997e-08  202.723386
6.879314e-08  200.984987
7.0259695e-08  199.336492
7.1758793e-08  197.777225
7.328857e-08  196.312101
7.4852294e-08  194.941126
7.644802e-08  193.669312
7.8079155e-08  192.497446
7.9743672e-08  191.430701
8.1445125e-08  190.470759
8.3181399e-08  189.623043
8.49562e-08  188.890272
8.6767325e-08  188.27822
8.8618638e-08  187.790817
9.0507839e-08  187.434316
9.2438962e-08  187.214066
9.4467499e-08  187.136917
9.6134767e-08  187.190137
9.7771544e-08  187.34362
9.9436189e-08  187.601762
1.01129175e-07  187.969192
1.02850986e-07  188.450883
1.04602113e-07  189.052148
1.06383054e-07  189.778633
1.08194317e-07  190.636304
1.10036418e-07  191.63145
1.11909882e-07  192.770704
1.13815244e-07  194.061058
1.15753047e-07  195.509847
1.17723842e-07  197.124679
1.19728191e-07  198.91332
1.21766667e-07  200.883556
1.23839849e-07  203.043049
1.25948329e-07  205.399201
1.28092707e-07  207.958978
1.30273596e-07  210.728688
1.32491616e-07  213.713713
1.34747399e-07  216.918279
1.3704159e-07  220.345359
1.39374841e-07  223.99682
1.41747817e-07  227.873853
1.44161195e-07  231.977722
1.46615664e-07  236.310877
1.49111921e-07  240.878431
1.5153387e-07  245.464836
1.54113864e-07  250.524017
1.56076256e-07  254.499647
1.58066451e-07  258.653798
1.60079173e-07  262.992051
1.62120411e-07  267.547594
1.64184753e-07  272.332253
1.66278344e-07  277.38776
1.6839563e-07  282.731401
1.6982312e-07  286.477316
1.71262711e-07  290.380669
1.72714505e-07  294.452776
1.74178606e-07  298.705358
1.75655118e-07  303.150508
1.77144146e-07  307.800648
1.78645797e-07  312.668499
1.80160178e-07  317.767057
1.81687395e-07  323.109561
1.83227559e-07  328.70947
1.84780779e-07  334.58043
1.86347166e-07  340.736236
1.87926831e-07  347.19079
1.89519887e-07  353.958039
1.91126447e-07  361.05192
1.92746626e-07  368.486277
1.94380539e-07  376.274787
1.95616362e-07  382.363184
1.96859169e-07  388.659832
1.98108989e-07  395.169628
1.99365853e-07  401.897262
2.00633371e-07  408.867102
2.01908053e-07  416.064711
2.03189928e-07  423.493848
2.04479027e-07  431.157832
2.06212395e-07  441.766926
2.07960458e-07  452.81559
2.09723338e-07  464.307506
2.11501163e-07  476.243318
2.13294059e-07  488.619962
2.15102152e-07  501.429904
2.16925573e-07  514.660299
2.18764451e-07  528.292084
2.20618918e-07  542.298997
2.23432124e-07  563.950184
2.32080546e-07  631.569652
2.34047892e-07  646.636591
2.36031916e-07  661.482331
2.37532548e-07  672.401985
2.39041661e-07  683.051207
2.4055929e-07  693.364159
2.42085471e-07  703.27158
2.4362459e-07  712.727226
2.44655018e-07  718.724496
2.45689796e-07  724.455249
2.46728959e-07  729.896425
2.47772508e-07  735.024687
2.4882048e-07  739.816932
2.49872876e-07  744.250091
2.50929732e-07  748.301618
2.51991048e-07  751.949363
2.53056863e-07  755.172031
2.54127176e-07  757.949099
2.55202026e-07  760.26123
2.56281412e-07  762.090262
2.57365374e-07  763.419549
2.5845391e-07  764.234002
2.59600025e-07  764.520614
2.60753305e-07  764.212735
2.61856171e-07  763.356428
2.62813803e-07  762.167321
2.640324e-07  760.057895
2.65126837e-07  757.599004
2.66250577e-07  754.525912
2.67374317e-07  750.906866
2.68507583e-07  746.716435
2.69640849e-07  741.99753
2.70783722e-07  736.720337
2.71926595e-07  730.941706
2.73079156e-07  724.627498
2.74231717e-07  717.847714
2.75394048e-07  710.563923
2.76556379e-07  702.858163
2.77728563e-07  694.687727
2.78900747e-07  686.145301
2.80082868e-07  677.183921
2.81264989e-07  667.905328
2.8245713e-07  658.258331
2.84250396e-07  643.268446
2.86053767e-07  627.709827
2.87872425e-07  611.63409
2.89701362e-07  595.181348
2.97131387e-07  527.336184
2.9965017e-07  504.611151
3.0155259e-07  487.71528
3.03465732e-07  471.019852
3.05395091e-07  454.531343
3.06686782e-07  443.708204
3.07983925e-07  433.025543
3.09286566e-07  422.494017
3.10594705e-07  412.12344
3.11908388e-07  401.922087
3.13227616e-07  391.897464
3.14552436e-07  382.055662
3.15882847e-07  372.402126
3.17218897e-07  362.940997
3.18560586e-07  353.675875
3.19907961e-07  344.609205
3.21261023e-07  335.742984
3.22619821e-07  327.078181
3.23984353e-07  318.615451
3.25354669e-07  310.354524
3.26730769e-07  302.294902
3.28112701e-07  294.435316
3.29500465e-07  286.774335
3.3054423e-07  281.16255
3.31593877e-07  275.646821
3.32643523e-07  270.256931
3.33699102e-07  264.961188
3.34757646e-07  259.773704
3.3581619e-07  254.707126
3.36883708e-07  249.71758
3.37951226e-07  244.846021
3.3902176e-07  240.076657
3.40098327e-07  235.394957
3.41174894e-07  230.825549
3.42257545e-07  226.340969
3.43343238e-07  221.952621
3.44428931e-07  217.670665
3.45523828e-07  213.457557
3.46618724e-07  209.347448
3.47716715e-07  205.326578
3.48820893e-07  201.382333
3.4992507e-07  197.535108
3.51035488e-07  193.761447
3.52149027e-07  190.070652
3.53262565e-07  186.470994
3.54385542e-07  182.930652
3.5550852e-07  179.478093
3.5663467e-07  176.101547
3.57767167e-07  172.790216
3.58899664e-07  169.56104
3.60038562e-07  166.394168
3.61180659e-07  163.297262
3.62322756e-07  160.277112
3.63474535e-07  157.306902
3.64626314e-07  154.410405
3.65781347e-07  151.577644
3.66942889e-07  148.799476
3.68104432e-07  146.090034
3.69272538e-07  143.432604
3.70443927e-07  140.833548
3.71615316e-07  138.298528
3.72796634e-07  135.804995
3.73977953e-07  133.37287
3.7555972e-07  130.209365
3.77148164e-07  127.135949
3.7874334e-07  124.1498
3.80345249e-07  121.248281
3.81953948e-07  118.428726
3.83569436e-07  115.688651
3.85191771e-07  113.025543
3.86820954e-07  110.437058
3.88457042e-07  107.920835
3.90100035e-07  105.474671
3.91749992e-07  103.096344
3.93406913e-07  100.783787
3.95070857e-07  98.5349142
3.96741823e-07  96.3477881
3.98419872e-07  94.2204517
4.00105004e-07  92.1510887
4.01797278e-07  90.1378688
4.03496694e-07  88.1790912
4.05203313e-07  86.2730407
4.06917135e-07  84.4181261
4.08638222e-07  82.6127414
4.10366572e-07  80.8554006
4.12102248e-07  79.1446007
4.1384525e-07  77.4789503
4.15595639e-07  75.8570456
4.17353416e-07  74.2775852
4.19118643e-07  72.7392556
4.20891321e-07  71.2408403
4.22671512e-07  69.7811114
4.24459216e-07  68.3589325
4.26254498e-07  66.973153
4.28057357e-07  65.6227117
4.29867857e-07  64.3065334
4.31685999e-07  63.0236245
4.33511847e-07  61.7729796
4.35345401e-07  60.5536704
4.37186727e-07  59.3647552
4.39035825e-07  58.2053658
4.40892759e-07  57.0746224
4.42757531e-07  55.9717117
4.44630207e-07  54.8958094
4.46510787e-07  53.8461556
4.48399337e-07  52.8219787
4.50295859e-07  51.8225665
4.52200419e-07  50.8471966
4.54113017e-07  49.8952033
4.56033721e-07  48.965909
4.57962533e-07  48.0586895
4.59899519e-07  47.1729111
4.61844681e-07  46.3079896
4.63798088e-07  45.4633299
4.65759739e-07  44.6383865
4.67729704e-07  43.8326018
4.69707984e-07  43.0454644
4.71694649e-07  42.2764518
4.73689699e-07  41.5250852
4.75693204e-07  40.7908742
4.77705166e-07  40.0733682
4.79725655e-07  39.3721054
4.81754673e-07  38.6866606
4.8379229e-07  38.0165972
4.85838507e-07  37.3615133
4.87893397e-07  36.7209952
4.8995696e-07  36.0946635
4.92029269e-07  35.4821283
4.94110325e-07  34.8830334
4.96200202e-07  34.2970133
4.98298898e-07  33.7237365
5.0040649e-07  33.1628612
5.02522978e-07  32.6140782
5.04648437e-07  32.077069
5.06782866e-07  31.5515446
5.08926342e-07  31.0372054
5.11078864e-07  30.5337797
5.1324051e-07  30.0409848
5.1541128e-07  29.5585636
5.1759125e-07  29.0862494
5.19780421e-07  28.6237988
5.21978871e-07  28.1709592
5.25290464e-07  27.5099013
5.28630129e-07  26.8677946
5.31988668e-07  26.2457422
5.35366161e-07  25.6429938
5.38762687e-07  25.0588318
5.42188006e-07  24.490994
5.45632682e-07  23.9404858
5.49096797e-07  23.4066735
5.52580435e-07  22.88895
5.56093603e-07  22.3853365
5.59626625e-07  21.8967489
5.63179586e-07  21.4226492
5.66752569e-07  20.962522
5.7035584e-07  20.5146295
5.73979474e-07  20.0798073
5.77623558e-07  19.6575993
5.81288178e-07  19.2475689
5.84983863e-07  18.8481891
5.88700434e-07  18.4602248
5.92437978e-07  18.0832873
5.96196585e-07  17.717002
5.99987054e-07  17.3600164
6.03798944e-07  17.0130246
6.07632346e-07  16.6756908
6.11487351e-07  16.3476926
6.15375035e-07  16.0278322
6.19284689e-07  15.7167452
6.23216407e-07  15.4141449
6.27170282e-07  15.1197557
6.31157674e-07  14.8325156
6.351676e-07  14.5530086
6.39200156e-07  14.2809909
6.43255436e-07  14.016228
6.47345093e-07  13.7577737
6.51457863e-07  13.5061577
6.55593842e-07  13.2611589
6.59753129e-07  13.0225606
6.63947675e-07  12.7895053
6.68165925e-07  12.5624722
6.7240798e-07  12.3412731
6.76673941e-07  12.1257313
6.80976065e-07  11.9150932
6.85302502e-07  11.7098096
6.89653354e-07  11.5097226
6.94028725e-07  11.3146786
6.98441186e-07  11.1239976
7.02878584e-07  10.9380885
7.07341023e-07  10.7568105
7.1182861e-07  10.5800269
7.16354239e-07  10.4071251
7.20905443e-07  10.2384798
7.25482331e-07  10.0739674
7.30085012e-07  9.91346853
7.3472671e-07  9.75643058
7.3939464e-07  9.60319789
7.44088912e-07  9.45366203
7.48809639e-07  9.30771808
7.53570384e-07  9.16486709
7.58358033e-07  9.0254255
7.64786634e-07  8.8445592
7.7126973e-07  8.66920969
7.77807784e-07  8.49918263
7.8440126e-07  8.33429182
7.9105063e-07  8.17435865
7.97756366e-07  8.01921198
8.04518947e-07  7.86868756
8.11338854e-07  7.72262791
8.18216573e-07  7.58088187
8.25152595e-07  7.4433044
8.32147414e-07  7.30975627
8.39201527e-07  7.18010386
8.46315439e-07  7.0542188
8.53489655e-07  6.93197786
8.60724686e-07  6.81326269
8.6802105e-07  6.69795952
8.75379264e-07  6.58595914
8.82799854e-07  6.47715656
8.90283348e-07  6.3714509
8.9783028e-07  6.2687452
9.05441188e-07  6.16894632
9.13116613e-07  6.07196502
9.20857102e-07  5.97771646
9.28663208e-07  5.88612148
9.36535486e-07  5.79710728
9.44474497e-07  5.71060357
9.52480807e-07  5.62653433
9.60554987e-07  5.54481434
9.68697612e-07  5.46535884
9.76909262e-07  5.38809655
9.85190521e-07  5.31297048
9.93541981e-07  5.23992901
1.00196424e-06  5.16891973
1.01045789e-06  5.09988926
1.02188062e-06  5.01094404
1.03261759e-06  4.93120034
1.04335456e-06  4.85499795
1.05439449e-06  4.78014588
1.06543442e-06  4.70866053
1.07657819e-06  4.63974318
1.08792962e-06  4.57272041
1.09928106e-06  4.50874677
1.11084603e-06  4.44655208
1.12251777e-06  4.38668844
1.1341895e-06  4.32960576
1.14619058e-06  4.27367793
1.15819165e-06  4.22042745
1.1703056e-06  4.16927161
1.1826453e-06  4.11972887
1.19498499e-06  4.07266948
1.20755682e-06  4.02717721
1.22024471e-06  3.98367967
1.23293259e-06  3.94252117
1.24597848e-06  3.90255829
1.25902437e-06  3.8649111
1.27219296e-06  3.82919191
1.28560696e-06  3.79510523
1.29902096e-06  3.76328793
1.31268729e-06  3.73316456
1.32647979e-06  3.70507746
1.34027229e-06  3.67929488
1.35445396e-06  3.65517864
1.36863563e-06  3.63349349
1.38295069e-06  3.61408882
1.39753252e-06  3.59692772
1.41211435e-06  3.58245069
1.42697047e-06  3.5705153
1.44196375e-06  3.56142422
1.45695703e-06  3.55543391
1.47637543e-06  3.55251455
1.49199724e-06  3.55428364
1.50761904e-06  3.55989186
1.52338777e-06  3.56963517
1.53945037e-06  3.58393701
1.55551297e-06  3.60276188
1.57187773e-06  3.62660325
1.58839356e-06  3.65528653
1.60490938e-06  3.68822957
1.62189123e-06  3.72580255
1.67137824e-06  3.84305335
1.68820111e-06  3.87843309
1.69796266e-06  3.89602522
1.70772421e-06  3.91075604
1.71748576e-06  3.92209433
1.72880916e-06  3.93038408
1.73940044e-06  3.93293062
1.74579426e-06  3.93189352
1.75555582e-06  3.92647956
1.76531737e-06  3.91644324
1.77507892e-06  3.90191766
1.78484047e-06  3.88316427
1.79460203e-06  3.86055552
1.80436358e-06  3.83455125
1.8190059e-06  3.79032541
1.8365767e-06  3.73135038
1.87902337e-06  3.57976133
1.8987664e-06  3.5117873
1.91850943e-06  3.44828348
