E(MeV)  pendfb7/Pu240:18
1e-11  3.08831117
1.02999e-11  3.04301968
1.06087e-11  2.99840637
1.09269e-11  2.95442674
1.12544e-11  2.91111899
1.1592e-11  2.86842167
1.19395e-11  2.82637284
1.22976e-11  2.78491857
1.26662e-11  2.74409393
1.30462e-11  2.7038413
1.34372e-11  2.66421046
1.38403e-11  2.62513127
1.42552e-11  2.58665267
1.46827e-11  2.5487158
1.51229e-11  2.51135287
1.55765e-11  2.47451487
1.60434e-11  2.43824532
1.65246e-11  2.40248234
1.70199e-11  2.36726621
1.75304e-11  2.33254742
1.80559e-11  2.29835359
1.85975e-11  2.26464362
1.9155e-11  2.23144728
1.97295e-11  2.19871994
2.03209e-11  2.16648888
2.09305e-11  2.13471059
2.15579e-11  2.1034217
2.22045e-11  2.07257002
2.28701e-11  2.04219067
2.35561e-11  2.01223628
2.42622e-11  1.98274235
2.49899e-11  1.95366199
2.5739e-11  1.92502484
2.6511e-11  1.89679201
2.73057e-11  1.86898776
2.81247e-11  1.84157734
2.89678e-11  1.81458219
2.98367e-11  1.78796796
3.07311e-11  1.76176064
3.16528e-11  1.73592256
3.26017e-11  1.710477
3.35795e-11  1.68539099
3.45861e-11  1.66068649
3.56235e-11  1.63633017
3.66913e-11  1.61234566
3.77919e-11  1.58869821
3.89247e-11  1.56541232
4.00923e-11  1.54245292
4.12941e-11  1.51984548
4.25327e-11  1.49755457
4.38076e-11  1.47560537
4.51216e-11  1.45396424
4.64742e-11  1.43265337
4.78681e-11  1.41164282
4.9303e-11  1.39095199
5.07818e-11  1.37055333
5.23041e-11  1.35046482
5.38729e-11  1.33065969
5.54878e-11  1.31115653
5.71521e-11  1.29192829
5.88653e-11  1.2729928
6.0631e-11  1.25432364
6.24484e-11  1.23594031
6.43215e-11  1.21781554
6.62496e-11  1.19996672
6.82368e-11  1.18236903
7.02822e-11  1.16504063
7.23903e-11  1.14795571
7.45603e-11  1.13113155
7.67967e-11  1.11454387
7.90987e-11  1.09820987
8.14712e-11  1.08210575
8.39134e-11  1.06624686
8.64304e-11  1.05061119
8.90212e-11  1.03521462
9.16913e-11  1.02003471
9.44399e-11  1.00508606
9.72725e-11  0.990348246
1.00188e-10  0.97583488
1.03193e-10  0.961528268
1.06287e-10  0.94743554
1.09475e-10  0.933542635
1.12756e-10  0.919863256
1.16139e-10  0.906373755
1.1962e-10  0.893093952
1.23208e-10  0.879998489
1.26901e-10  0.867104267
1.30707e-10  0.854392205
1.34626e-10  0.841871512
1.38664e-10  0.829526923
1.4282e-10  0.817373656
1.47104e-10  0.805389748
1.51513e-10  0.793589318
1.56058e-10  0.781954842
1.60736e-10  0.770497734
1.65557e-10  0.759202553
1.7052e-10  0.748078749
1.75635e-10  0.737111273
1.80899e-10  0.726312787
1.86325e-10  0.715666367
1.91911e-10  0.705180855
1.97667e-10  0.69484372
2.03592e-10  0.684664502
2.09699e-10  0.674628343
2.15985e-10  0.66474582
2.22463e-10  0.655002454
2.29132e-10  0.645407419
2.36004e-10  0.635948214
2.43079e-10  0.626632421
2.5037e-10  0.617448139
2.57875e-10  0.608404434
2.6561e-10  0.599487646
2.73572e-10  0.590707549
2.81777e-10  0.582051154
2.90224e-10  0.573526316
2.98929e-10  0.56512182
3.0789e-10  0.556845733
3.17125e-10  0.54868587
3.26631e-10  0.540651246
3.36428e-10  0.532729386
3.46513e-10  0.524928716
3.56906e-10  0.517237892
3.67605e-10  0.509664415
3.78631e-10  0.502197559
3.89981e-10  0.494845023
4.01678e-10  0.487595873
4.13719e-10  0.480457598
4.26128e-10  0.473419745
4.38901e-10  0.466489587
4.52066e-10  0.45965702
4.65617e-10  0.452928795
4.79583e-10  0.446295461
4.93959e-10  0.439763381
5.08775e-10  0.433323465
5.24026e-10  0.426981857
5.39744e-10  0.420729698
5.55923e-10  0.414573062
5.72598e-10  0.408503232
5.89762e-10  0.40252617
6.07452e-10  0.396633307
6.25661e-10  0.390830658
6.44427e-10  0.385109791
6.63744e-10  0.379476319
6.83653e-10  0.373922348
7.04146e-10  0.36845324
7.25267e-10  0.363061238
7.47007e-10  0.357751805
7.69413e-10  0.352517305
7.92477e-10  0.347362666
8.16247e-10  0.342280904
8.40715e-10  0.337276759
8.65932e-10  0.332343258
8.91889e-10  0.327485277
9.18641e-10  0.322695792
9.46178e-10  0.317979675
9.74558e-10  0.313330089
1.003771e-09  0.308751653
1.033879e-09  0.304237849
1.064871e-09  0.29979316
1.096811e-09  0.295411179
1.129689e-09  0.291096371
1.163573e-09  0.28684247
1.198452e-09  0.282653697
1.234399e-09  0.278524133
1.271402e-09  0.274457772
1.309537e-09  0.270448849
1.348791e-09  0.266501437
1.389247e-09  0.262609819
1.430892e-09  0.258777752
1.47381e-09  0.254999933
1.517989e-09  0.251279971
1.563521e-09  0.247612605
1.610389e-09  0.244001549
1.658691e-09  0.240441565
1.708412e-09  0.236936139
1.759655e-09  0.23348035
1.812403e-09  0.230077571
1.866765e-09  0.226722944
1.922723e-09  0.22341986
1.980394e-09  0.220163509
2.039758e-09  0.216957197
2.100939e-09  0.213796311
2.163917e-09  0.210683943
2.228823e-09  0.207615691
2.295634e-09  0.204594627
2.36449e-09  0.201616388
2.435368e-09  0.198683939
2.508415e-09  0.195793115
2.583608e-09  0.192946726
2.661102e-09  0.190140747
2.740871e-09  0.187377985
2.823082e-09  0.184654446
2.907706e-09  0.181972867
2.994921e-09  0.179329408
3.084697e-09  0.17672666
3.177221e-09  0.174160944
3.272461e-09  0.171634795
3.370617e-09  0.169144598
3.471655e-09  0.166692829
3.575785e-09  0.164275979
3.682973e-09  0.161896455
3.793441e-09  0.159550857
3.907154e-09  0.157241489
4.024346e-09  0.154965084
4.14498e-09  0.152723866
4.269306e-09  0.150514666
4.397283e-09  0.14833964
4.529177e-09  0.146195711
4.664944e-09  0.144084977
4.804866e-09  0.142004446
4.948897e-09  0.139956161
5.097336e-09  0.137937206
5.250134e-09  0.135949566
5.407609e-09  0.133990408
5.569708e-09  0.132061671
5.736768e-09  0.130160591
5.908733e-09  0.128289051
6.085962e-09  0.126444373
6.268395e-09  0.124628372
6.456412e-09  0.122838462
6.649949e-09  0.121076412
6.849411e-09  0.119339703
7.054729e-09  0.117630198
7.266331e-09  0.115945179
7.484147e-09  0.114286459
7.70863e-09  0.112651686
7.939704e-09  0.11104249
8.17785e-09  0.109456583
8.42299e-09  0.107895535
8.675632e-09  0.106357145
8.935694e-09  0.10484293
9.203714e-09  0.103350754
9.479605e-09  0.101882092
9.76394e-09  0.100434866
1.0056625e-08  0.099010505
1.0358267e-08  0.097606988
1.0668767e-08  0.096225699
1.098877e-08  0.094864666
1.131817e-08  0.093525223
1.1657652e-08  0.092205447
1.2007102e-08  0.090906631
1.2367248e-08  0.089626903
1.2737969e-08  0.088367518
1.3120036e-08  0.087126673
1.3513323e-08  0.085905587
1.3918647e-08  0.08470253
1.4335873e-08  0.083518697
1.4765869e-08  0.082352417
1.5208491e-08  0.081204856
1.5664661e-08  0.080074395
1.6134225e-08  0.078962164
1.6618162e-08  0.077866587
1.7116308e-08  0.076788758
1.7629702e-08  0.075727147
1.8158171e-08  0.074682812
1.8702814e-08  0.073654273
1.926345e-08  0.072642559
1.9841246e-08  0.071646239
2.0436008e-08  0.070666316
2.1048973e-08  0.069701408
2.1679938e-08  0.068752476
2.2330215e-08  0.067818172
2.2999587e-08  0.066899408
2.3689445e-08  0.065994852
2.4399561e-08  0.065105373
2.5268741e-08  0.064069756
2.53e-08  0.064033541
2.6058858e-08  0.063175159
2.684e-08  0.062331206
2.7645049e-08  0.061500518
2.8473738e-08  0.060683952
2.9327791e-08  0.059880381
3.0206922e-08  0.059090613
3.111296e-08  0.058313524
3.2181429e-08  0.057441557
3.3286591e-08  0.056586255
3.4429706e-08  0.055747373
3.5612077e-08  0.054924695
3.6835053e-08  0.05411803
3.8100027e-08  0.053327195
3.9408443e-08  0.052552007
4.0761792e-08  0.051792278
4.2161617e-08  0.051047821
4.3609514e-08  0.050318453
4.5107135e-08  0.049603996
4.6656186e-08  0.048904278
4.8258434e-08  0.048219134
4.9915706e-08  0.047548405
5.1629891e-08  0.046891948
5.3402944e-08  0.046249636
5.5236886e-08  0.045621373
5.7133809e-08  0.045007073
5.9095876e-08  0.044406614
6.1125323e-08  0.043819786
6.3224464e-08  0.043246344
6.5395693e-08  0.042686109
6.7641486e-08  0.042139016
6.9964403e-08  0.041605051
7.2367092e-08  0.041084191
7.4852294e-08  0.040576384
7.7422841e-08  0.040081575
8.0081665e-08  0.039599712
8.2831798e-08  0.039130753
8.5676374e-08  0.038674665
8.8618638e-08  0.038231429
9.1661944e-08  0.037801035
9.4809761e-08  0.037383487
9.806568e-08  0.036978801
1.01433412e-07  0.036587014
1.04916798e-07  0.036208205
1.08519809e-07  0.035842526
1.12246552e-07  0.035490134
1.16101278e-07  0.035150989
1.20088382e-07  0.034824936
1.24212409e-07  0.034512052
1.28478062e-07  0.034212632
1.32890204e-07  0.033926951
1.37453866e-07  0.03365524
1.42174251e-07  0.033397738
1.47056742e-07  0.033154711
1.52106906e-07  0.032926457
1.57330501e-07  0.032713315
1.62733481e-07  0.032515661
1.68322009e-07  0.032333916
1.74102456e-07  0.03216855
1.80081413e-07  0.032020087
1.86265697e-07  0.031889111
1.92662359e-07  0.031776269
1.99278692e-07  0.031682281
2.06122241e-07  0.031607928
2.13200808e-07  0.031554111
2.20522465e-07  0.03152188
2.27333428e-07  0.03151224
2.34358744e-07  0.031521917
2.42406998e-07  0.031556377
2.49673402e-07  0.031608194
2.57162204e-07  0.031681569
2.6487091e-07  0.031777632
2.72815552e-07  0.031897854
2.80993483e-07  0.032043624
2.89421712e-07  0.032216824
2.98097431e-07  0.032419153
3.07038682e-07  0.032653019
3.14913361e-07  0.032880228
3.22990003e-07  0.033133933
3.31273788e-07  0.033415978
3.39770029e-07  0.033728418
3.48484175e-07  0.034073536
3.57060888e-07  0.034437982
3.65956e-07  0.034842421
3.737035e-07  0.035217115
3.81451e-07  0.035613193
3.891985e-07  0.036031189
3.96946e-07  0.036471702
4.05415448e-07  0.036979803
4.14058228e-07  0.037527843
4.21107925e-07  0.037997728
4.2827765e-07  0.038497416
4.35569445e-07  0.039028929
4.42985389e-07  0.039594479
4.50527596e-07  0.040196486
4.58198215e-07  0.040837612
4.65999434e-07  0.041520785
4.71941593e-07  0.042063075
4.77951009e-07  0.042631523
4.84045568e-07  0.043229328
4.90209108e-07  0.043856532
4.96459975e-07  0.044516767
5.02781593e-07  0.045210192
5.09192777e-07  0.045940947
5.15676527e-07  0.046709351
5.2225214e-07  0.047520151
5.2890218e-07  0.048373882
5.35646439e-07  0.049276022
5.42467033e-07  0.050227369
5.49384264e-07  0.051234245
5.54041394e-07  0.051937077
5.58738003e-07  0.052667025
5.63474425e-07  0.053425456
5.68250998e-07  0.05421383
5.73068061e-07  0.055033704
5.77925959e-07  0.055886739
5.82825038e-07  0.056774708
5.87765645e-07  0.057699512
5.92748135e-07  0.058663183
5.97772861e-07  0.059667902
6.02840181e-07  0.060716008
6.07950458e-07  0.061810016
6.13104054e-07  0.06295263
6.18301337e-07  0.064146762
6.23542677e-07  0.065395553
6.28828448e-07  0.066702391
6.34159027e-07  0.068070941
6.38185179e-07  0.069139843
6.42234021e-07  0.070246652
6.46317184e-07  0.071396478
6.50423423e-07  0.072588208
6.54552834e-07  0.073823911
6.58705517e-07  0.075105784
6.62893402e-07  0.076439999
6.67104954e-07  0.077825537
6.71340274e-07  0.079265085
6.75599461e-07  0.08076151
6.79894754e-07  0.082322365
6.8421432e-07  0.083946834
6.88558264e-07  0.085638464
6.92926688e-07  0.087401053
6.97332142e-07  0.089243982
7.01762494e-07  0.091166824
7.06217847e-07  0.093174335
7.10698308e-07  0.095271639
7.1521675e-07  0.097470597
7.18241813e-07  0.098992074
7.21279643e-07  0.100561423
7.24330349e-07  0.102180747
7.27393931e-07  0.10385221
7.30470497e-07  0.105578156
7.33560049e-07  0.107361004
7.36662695e-07  0.109203373
7.39778437e-07  0.111107972
7.42907385e-07  0.113077739
7.46049539e-07  0.115115716
7.49205011e-07  0.117225204
7.52373801e-07  0.119409631
7.55556022e-07  0.121672719
7.58751674e-07  0.124018343
7.6196087e-07  0.12645071
7.65183612e-07  0.128974213
7.68420013e-07  0.131593625
7.71670073e-07  0.134313944
7.74933909e-07  0.137140602
7.78211521e-07  0.140079304
7.81503024e-07  0.143136254
7.8480842e-07  0.146317986
7.87294471e-07  0.148788233
7.89794533e-07  0.151342027
7.92294595e-07  0.153968287
7.94808785e-07  0.156685278
7.97330039e-07  0.159489302
7.99851294e-07  0.162375977
8.02393922e-07  0.16537418
8.04936549e-07  0.168463356
8.0748636e-07  0.171656389
8.10050541e-07  0.174967507
8.12614722e-07  0.178383253
8.15193395e-07  0.181928365
8.17779313e-07  0.185599117
8.2036523e-07  0.189390836
8.22973069e-07  0.193342718
8.25580907e-07  0.197429015
8.28196115e-07  0.201668093
8.3082606e-07  0.206080383
8.33456005e-07  0.210649549
8.36100813e-07  0.215410403
8.38753052e-07  0.220359878
8.41405291e-07  0.225493601
8.44080013e-07  0.230866915
8.45863161e-07  0.234563499
8.47646309e-07  0.238355278
8.49437016e-07  0.242262277
8.5123528e-07  0.246289287
8.53033544e-07  0.250423751
8.54831808e-07  0.254669558
8.56637693e-07  0.259049509
8.58451201e-07  0.26356942
8.60264709e-07  0.268215626
8.62078217e-07  0.272992916
8.63899411e-07  0.277927435
8.65728292e-07  0.283026293
8.67557173e-07  0.288274629
8.69386054e-07  0.293678402
8.71222687e-07  0.299267817
8.73067071e-07  0.305051648
8.74911455e-07  0.311013765
8.76755839e-07  0.317161652
8.78608041e-07  0.3235305
8.80468061e-07  0.330131257
8.8232808e-07  0.336946452
8.84188099e-07  0.343985587
8.86056002e-07  0.351290036
8.87931788e-07  0.358873594
8.89807575e-07  0.366717455
8.91683361e-07  0.374833794
8.93567098e-07  0.383271766
8.94985864e-07  0.389825346
8.9640463e-07  0.39655628
8.97823396e-07  0.403471096
8.99242161e-07  0.41057662
9.00664935e-07  0.417900937
9.02095728e-07  0.42547485
9.03526521e-07  0.43326571
9.04957314e-07  0.441281975
9.06388106e-07  0.449532519
9.07818898e-07  0.458026673
9.0926182e-07  0.466849499
9.10704742e-07  0.475940613
9.12147663e-07  0.485311124
9.13590584e-07  0.494972743
9.15033506e-07  0.504937809
9.16484581e-07  0.515278332
9.17939734e-07  0.525983308
9.19394887e-07  0.537038978
9.2085004e-07  0.548461027
9.22305193e-07  0.560266035
9.23764458e-07  0.572506614
9.25231947e-07  0.585241272
9.26699436e-07  0.598422361
9.28166924e-07  0.612071268
9.29634412e-07  0.626210714
9.311019e-07  0.640864822
9.32581829e-07  0.656190423
9.34061757e-07  0.672093496
9.35048376e-07  0.683031011
9.36034995e-07  0.694247701
9.37021614e-07  0.705753288
9.38008233e-07  0.717557926
9.38994851e-07  0.729672209
9.39984895e-07  0.742150991
9.40974939e-07  0.754964468
9.41964983e-07  0.768124901
9.42955026e-07  0.78164511
9.4394507e-07  0.79553856
9.44935113e-07  0.809819306
9.45925157e-07  0.824502136
9.469152e-07  0.839602498
9.47918575e-07  0.85534887
9.4892195e-07  0.871558545
9.49925325e-07  0.888250179
9.509287e-07  0.90544339
9.51932075e-07  0.923158816
9.5293545e-07  0.941418183
9.53938825e-07  0.960244372
9.549422e-07  0.979661502
9.55954081e-07  0.999867534
9.56965962e-07  1.02072795
9.57977843e-07  1.04227183
9.58989723e-07  1.06452986
9.60001604e-07  1.08753459
9.61013484e-07  1.11132035
9.62025365e-07  1.13592361
9.63037245e-07  1.1613829
9.6401769e-07  1.18690646
9.64998134e-07  1.21331154
9.65978579e-07  1.24064003
9.66959023e-07  1.26893621
9.67694357e-07  1.29082165
9.6842969e-07  1.31329876
9.69165023e-07  1.33638945
9.69900356e-07  1.36011666
9.70635689e-07  1.3845044
9.71395185e-07  1.41041367
9.72166763e-07  1.43751409
9.72938339e-07  1.46543143
9.73709917e-07  1.49419953
9.74481494e-07  1.52385368
9.75253071e-07  1.5544312
9.76024648e-07  1.58597132
9.76796225e-07  1.61851535
9.77567802e-07  1.65210681
9.7833938e-07  1.68679159
9.79110957e-07  1.72261791
9.79838287e-07  1.7574808
9.80565617e-07  1.7934483
9.81292948e-07  1.83056776
9.82020278e-07  1.8688888
9.82747609e-07  1.90846384
9.83474939e-07  1.94934781
9.8420227e-07  1.99159873
9.849296e-07  2.03527746
9.8570435e-07  2.0834466
9.864791e-07  2.13339042
9.8725385e-07  2.18519519
9.8777035e-07  2.22081037
9.8828685e-07  2.25732126
9.8880335e-07  2.29475712
9.8931985e-07  2.33314831
9.8983635e-07  2.37252624
9.9035285e-07  2.41292349
9.9086935e-07  2.4543738
9.9138585e-07  2.49691211
9.9190235e-07  2.54057462
9.9241885e-07  2.58539878
9.9293535e-07  2.63142337
9.9345185e-07  2.67868849
9.9396835e-07  2.72723562
9.9448485e-07  2.77710766
9.9500135e-07  2.82834893
9.9551785e-07  2.88100521
9.9603435e-07  2.93512378
9.9655085e-07  2.99075342
9.9706735e-07  3.04794445
9.9758385e-07  3.10674875
9.9810035e-07  3.16721976
9.9861685e-07  3.22941251
9.9913335e-07  3.29338359
9.9964985e-07  3.35919123
1.00016635e-06  3.4268952
1.00068285e-06  3.49655689
1.00119935e-06  3.56823925
1.00171585e-06  3.64200676
1.00223235e-06  3.71792546
1.00274885e-06  3.79606285
1.00326535e-06  3.87648791
1.00378185e-06  3.959271
1.00429835e-06  4.04448382
1.00481485e-06  4.13219935
1.00533135e-06  4.22249177
1.00584785e-06  4.31543634
1.00636435e-06  4.41110934
1.00688085e-06  4.50958793
1.00739735e-06  4.61095004
1.00791385e-06  4.71527422
1.00843035e-06  4.82263948
1.00894685e-06  4.93312514
1.00946335e-06  5.04681065
1.00997985e-06  5.16377538
1.01049635e-06  5.28409842
1.01101285e-06  5.40785835
1.01152935e-06  5.53513299
1.01204585e-06  5.66599914
1.01256235e-06  5.80053235
1.01307885e-06  5.93880656
1.01359535e-06  6.08089384
1.01411185e-06  6.22686407
1.01462835e-06  6.37678457
1.01514485e-06  6.53071979
1.01566135e-06  6.68873089
1.01617785e-06  6.85087543
1.01669435e-06  7.01720691
1.01721085e-06  7.18777439
1.01772735e-06  7.3626221
1.01824385e-06  7.54178896
1.01876035e-06  7.72530818
1.01927685e-06  7.91320681
1.01979335e-06  8.10550527
1.02030985e-06  8.30221693
1.02082635e-06  8.50334761
1.02134285e-06  8.70889518
1.02185935e-06  8.91884905
1.02237585e-06  9.13318972
1.02289235e-06  9.3518884
1.02340885e-06  9.57490647
1.02392535e-06  9.80219516
1.02444185e-06  10.033695
1.0252166e-06  10.3886837
1.02599135e-06  10.7527003
1.0267661e-06  11.1253985
1.02754085e-06  11.5063691
1.0283156e-06  11.8951386
1.02909035e-06  12.2911669
1.0298651e-06  12.6938465
1.0308981e-06  13.2399219
1.0319311e-06  13.7948232
1.0334806e-06  14.6392842
1.0365796e-06  16.3426264
1.0376126e-06  16.9049468
1.0386456e-06  17.4596907
1.03951332e-06  17.9175629
1.04038104e-06  18.3660335
1.04124876e-06  18.8031975
1.04211648e-06  19.227137
1.0429842e-06  19.6359354
1.04385192e-06  20.0276933
1.0444304e-06  20.2784749
1.04500888e-06  20.5203111
1.04558736e-06  20.7526722
1.04616584e-06  20.9750428
1.04674432e-06  21.1869233
1.0474261e-06  21.422519
1.04810788e-06  21.6421244
1.04878966e-06  21.845031
1.04947144e-06  22.030578
1.05015322e-06  22.1981562
1.05079368e-06  22.3387145
1.05141348e-06  22.458786
1.05203328e-06  22.5628313
1.05265308e-06  22.6505629
1.05327288e-06  22.7217386
1.05395053e-06  22.7803817
1.05447943e-06  22.8121131
1.05500832e-06  22.8314665
1.05553722e-06  22.8384064
1.05608264e-06  22.8325508
1.05653303e-06  22.8177671
1.05713631e-06  22.7839121
1.05773958e-06  22.7340582
1.05834285e-06  22.6683455
1.05885108e-06  22.6008102
1.05947088e-06  22.5035837
1.06009068e-06  22.3902865
1.06071048e-06  22.2612417
1.06133028e-06  22.1168144
1.06195008e-06  21.9574089
1.06269384e-06  21.7469764
1.0634376e-06  21.5164448
1.06418136e-06  21.266712
1.06492512e-06  20.9987364
1.06566888e-06  20.7135309
1.06645396e-06  20.3949595
1.0672597e-06  20.0506282
1.06806544e-06  19.6901249
1.06887118e-06  19.3149253
1.06967692e-06  18.9265274
1.07065827e-06  18.4378394
1.07154665e-06  17.9827741
1.07243503e-06  17.5177434
1.0737676e-06  16.8058244
1.0784161e-06  14.2710893
1.0794491e-06  13.7133026
1.0804821e-06  13.1624509
1.0815151e-06  12.6204468
1.08228985e-06  12.2207841
1.0830646e-06  11.8277055
1.08383935e-06  11.4417891
1.0846141e-06  11.0635487
1.08538885e-06  10.6934349
1.0861636e-06  10.3318369
1.08693835e-06  9.97908475
1.0877131e-06  9.63545117
1.0882296e-06  9.41153798
1.0887461e-06  9.19182741
1.0892626e-06  8.97636143
1.0897791e-06  8.76517259
1.0902956e-06  8.55828442
1.0908121e-06  8.35571183
1.0913286e-06  8.15746156
1.0918451e-06  7.9635326
1.0923616e-06  7.77391657
1.0928781e-06  7.58859823
