E(MeV)  pendfb7/Pu240:2
1e-11  3.98964801
1.02999e-11  3.93456053
1.06087e-11  3.88034695
1.09269e-11  3.82695311
1.12544e-11  3.7744253
1.1592e-11  3.7226889
1.19395e-11  3.67178991
1.22976e-11  3.62166298
1.26662e-11  3.5723504
1.30462e-11  3.52378247
1.34372e-11  3.47601914
1.38403e-11  3.42897575
1.42552e-11  3.38271111
1.46827e-11  3.3371543
1.51229e-11  3.29234388
1.55765e-11  3.24822095
1.60434e-11  3.20483747
1.65246e-11  3.16211927
1.70921e-11  3.11415241
1.7679e-11  3.06707508
1.82862e-11  3.02085544
1.89141e-11  2.97550227
1.95637e-11  2.93098174
2.02355e-11  2.88729754
2.09305e-11  2.84442177
2.16492e-11  2.80235977
2.23927e-11  2.76108256
2.31617e-11  2.72058661
2.39571e-11  2.6808586
2.47798e-11  2.64188709
2.56308e-11  2.60365773
2.6511e-11  2.56616246
2.74215e-11  2.52938618
2.83632e-11  2.49332354
2.93372e-11  2.45796246
3.03447e-11  2.42328913
3.13868e-11  2.38929495
3.24646e-11  2.35597235
3.35795e-11  2.32330595
3.47327e-11  2.29128816
3.59255e-11  2.25990965
3.71592e-11  2.22916226
3.84353e-11  2.19903416
3.97553e-11  2.16951519
4.11205e-11  2.14060066
4.25327e-11  2.11227638
4.39933e-11  2.08453771
4.55041e-11  2.05737325
4.70668e-11  2.03077485
4.86831e-11  2.00473535
5.0355e-11  1.97924386
5.20843e-11  1.95429383
5.38729e-11  1.92987803
5.5723e-11  1.90598622
5.76366e-11  1.8826119
5.96159e-11  1.85974698
6.16632e-11  1.83738323
6.37809e-11  1.8155124
6.59712e-11  1.79412914
6.82368e-11  1.77322397
7.05801e-11  1.75279119
7.3004e-11  1.73282154
7.5511e-11  1.71330996
7.84338e-11  1.69190092
8.14712e-11  1.6710417
8.46248e-11  1.6507409
8.79019e-11  1.63097053
9.13043e-11  1.61173893
9.48402e-11  1.59301841
9.85112e-11  1.57481746
1.02326e-10  1.55710927
1.06287e-10  1.53990035
1.10403e-10  1.5231655
1.14676e-10  1.50691273
1.19117e-10  1.4911162
1.23728e-10  1.47578085
1.28519e-10  1.46088539
1.33494e-10  1.44643199
1.38664e-10  1.4323992
1.44031e-10  1.41879434
1.5024e-10  1.40415335
1.56717e-10  1.39000652
1.63473e-10  1.37634187
1.7052e-10  1.36314748
1.77871e-10  1.35041149
1.85539e-10  1.33812214
1.93538e-10  1.32626771
2.01881e-10  1.31483658
2.11476e-10  1.30273579
2.21524e-10  1.29112134
2.32053e-10  1.27997142
2.43079e-10  1.2692776
2.54633e-10  1.25901792
2.66731e-10  1.24918608
2.79409e-10  1.23975889
2.93925e-10  1.22992627
3.09195e-10  1.22054492
3.25258e-10  1.21159691
3.42156e-10  1.20306411
3.61451e-10  1.19427056
3.8184e-10  1.18592006
4.03373e-10  1.17799658
4.27926e-10  1.16991397
4.53974e-10  1.16227554
4.81607e-10  1.15505742
5.13088e-10  1.14776301
5.46617e-10  1.14089951
5.84805e-10  1.1340209
6.25661e-10  1.12757074
6.72208e-10  1.12115432
7.22206e-10  1.11515866
7.79211e-10  1.10923276
8.40715e-10  1.10370896
9.10919e-10  1.09827895
9.91151e-10  1.09297145
1.083001e-09  1.08780852
1.188378e-09  1.08280557
1.309537e-09  1.07797337
1.449138e-09  1.07331748
1.610389e-09  1.06883631
1.797168e-09  1.06452128
2.022612e-09  1.06020984
2.295634e-09  1.05590984
2.627596e-09  1.05161142
3.033057e-09  1.04728452
3.530763e-09  1.04287567
4.162549e-09  1.0381834
4.990849e-09  1.03296284
6.085962e-09  1.02700128
7.579581e-09  1.01981862
9.681867e-09  1.01066354
1.2791959e-08  0.998092774
1.770411e-08  0.979248621
2.5268741e-08  0.951153089
2.53e-08  0.951038166
3.9574771e-08  0.899018732
6.1383309e-08  0.820389072
8.2831798e-08  0.743670199
1.00580789e-07  0.68071826
1.1561126e-07  0.627903779
1.28478062e-07  0.583142253
1.39794136e-07  0.544186868
1.50191747e-07  0.508789196
1.59333851e-07  0.478022313
1.67611588e-07  0.450486292
1.75578323e-07  0.424303755
1.83147454e-07  0.399745056
1.9023657e-07  0.377048414
1.96769598e-07  0.356413698
2.02671583e-07  0.338020716
2.07869539e-07  0.322029347
2.13200808e-07  0.305841802
2.17745894e-07  0.292221759
2.22391834e-07  0.278479575
2.27132856e-07  0.264652754
2.30999989e-07  0.253528133
2.34932962e-07  0.24236103
2.38932897e-07  0.231161166
2.43000935e-07  0.219939961
2.46099545e-07  0.211512046
2.49233226e-07  0.203097471
2.52411306e-07  0.194678864
2.55625357e-07  0.186286473
2.58884946e-07  0.17790365
2.62181429e-07  0.169561456
2.65524617e-07  0.161244514
2.67775469e-07  0.155728621
2.70045402e-07  0.15023578
2.72334577e-07  0.144768874
2.74643157e-07  0.139330925
2.76971307e-07  0.133925092
2.79319193e-07  0.128554682
2.81686982e-07  0.123223153
2.84074842e-07  0.117934126
2.85878378e-07  0.113998893
2.87692078e-07  0.110094093
2.89521152e-07  0.106210508
2.91360563e-07  0.102360905
2.93210354e-07  0.098547101
2.9507057e-07  0.094770974
2.96946555e-07  0.091023971
2.98833142e-07  0.08731878
3.00730375e-07  0.083657491
3.02638301e-07  0.080042252
3.04562399e-07  0.076465267
3.05850569e-07  0.074109764
3.07144175e-07  0.071776435
3.08443264e-07  0.069465978
3.09747836e-07  0.06717919
3.11057937e-07  0.064916804
3.12373568e-07  0.062679652
3.13694775e-07  0.060468506
3.15021559e-07  0.058284234
3.16353966e-07  0.05612765
3.17691997e-07  0.053999661
3.19035699e-07  0.051901124
3.20385072e-07  0.049832989
3.21399961e-07  0.048303712
3.2242057e-07  0.046788732
3.23441179e-07  0.045296941
3.24467555e-07  0.04382032
3.25496816e-07  0.042363528
3.26526077e-07  0.040930971
3.27564063e-07  0.039511039
3.28602048e-07  0.03811621
3.29642967e-07  0.03674288
3.30689751e-07  0.035387744
3.31736535e-07  0.034058854
3.32789236e-07  0.03274917
3.33844894e-07  0.031462964
3.34548666e-07  0.030620727
3.35255421e-07  0.029787275
3.35965159e-07  0.028962843
3.36674897e-07  0.028151053
3.37384635e-07  0.027351986
3.38097382e-07  0.026562414
3.38813136e-07  0.025782587
3.39528891e-07  0.025015943
3.40244645e-07  0.024262569
3.40963433e-07  0.023519439
3.41685255e-07  0.02278681
3.42407077e-07  0.022067933
3.43128899e-07  0.021362897
3.4385378e-07  0.02066889
3.44581721e-07  0.01998618
3.45309662e-07  0.019317816
3.46037602e-07  0.018663893
3.465851e-07  0.018181634
3.47135684e-07  0.017704987
3.47686268e-07  0.017236733
3.48236852e-07  0.016776913
3.48787435e-07  0.01632557
3.49338019e-07  0.015882741
3.4989327e-07  0.015444825
3.50448521e-07  0.015015655
3.51003772e-07  0.014595273
3.51559023e-07  0.014183721
3.52114274e-07  0.013781044
3.52672663e-07  0.013385085
3.53232621e-07  0.012997113
3.53792578e-07  0.012618301
3.54352536e-07  0.012248693
3.54912493e-07  0.011888333
3.55474033e-07  0.01153629
3.56038738e-07  0.011191735
3.56603443e-07  0.010856727
3.56979913e-07  0.010638715
3.57356383e-07  0.010424982
3.57732852e-07  0.010215542
3.58109322e-07  0.010010408
3.58609237e-07  0.00974469
3.59076758e-07  0.009503115
3.59544278e-07  0.009268261
3.60011799e-07  0.009040154
3.6047932e-07  0.008818824
3.60952407e-07  0.008601783
3.61436625e-07  0.008386881
3.61920844e-07  0.008179338
3.62243657e-07  0.008045081
3.62566469e-07  0.007914118
3.62889282e-07  0.007786458
3.63212094e-07  0.007662111
3.63534907e-07  0.007541087
3.63857719e-07  0.007423395
3.64180532e-07  0.007309043
3.64503344e-07  0.007198043
3.64826157e-07  0.007090402
3.65148969e-07  0.006986132
3.65471782e-07  0.00688524
3.65794594e-07  0.006787737
3.66117407e-07  0.006693633
3.66440219e-07  0.006602937
3.66763032e-07  0.006515659
3.67085844e-07  0.006431808
3.67408657e-07  0.006351394
3.67731469e-07  0.006274427
3.68054282e-07  0.006200916
3.68377094e-07  0.006130872
3.68699907e-07  0.006064304
3.69022719e-07  0.006001223
3.69345532e-07  0.005941637
3.69668344e-07  0.005885557
3.69991157e-07  0.005832993
3.70313969e-07  0.005783954
3.70636782e-07  0.005738451
3.70959594e-07  0.005696495
3.71282407e-07  0.005658093
3.71605219e-07  0.005623258
3.71928032e-07  0.005591998
3.72250844e-07  0.005564325
3.72573657e-07  0.005540248
3.72896469e-07  0.005519777
3.73219282e-07  0.005502923
3.73542094e-07  0.005489696
3.73897188e-07  0.005479347
3.74187719e-07  0.005474163
3.74526672e-07  0.005471861
3.74865625e-07  0.005473603
3.75156157e-07  0.005478324
3.75414407e-07  0.005485029
3.75737219e-07  0.005496739
3.76060032e-07  0.005512156
3.76382844e-07  0.005531292
3.76705657e-07  0.005554157
3.77028469e-07  0.005580761
3.77351282e-07  0.005611115
3.77674094e-07  0.005645229
3.77996907e-07  0.005683116
3.78319719e-07  0.005724784
3.78642532e-07  0.005770244
3.78965344e-07  0.005819509
3.79288157e-07  0.005872587
3.79610969e-07  0.005929491
3.79933782e-07  0.00599023
3.80256594e-07  0.006054816
3.80579407e-07  0.006123261
3.80902219e-07  0.006195573
3.81225032e-07  0.006271766
3.81547844e-07  0.006351848
3.81870657e-07  0.006435833
3.82193469e-07  0.00652373
3.82516282e-07  0.006615551
3.82839094e-07  0.006711307
3.83161907e-07  0.006811009
3.83484719e-07  0.006914669
3.83807532e-07  0.007022297
3.84130344e-07  0.007133904
3.84453157e-07  0.007249503
3.84775969e-07  0.007369104
3.85098782e-07  0.007492719
3.85421594e-07  0.007620359
3.85744407e-07  0.007752036
3.86067219e-07  0.007887761
3.86390032e-07  0.008027545
3.86712844e-07  0.0081714
3.87035657e-07  0.008319338
3.87358469e-07  0.008471369
3.87681282e-07  0.008627507
3.88004094e-07  0.008787762
3.88326907e-07  0.008952147
3.88649719e-07  0.009120671
3.88972532e-07  0.009293349
3.89295344e-07  0.009470191
3.89618157e-07  0.009651209
3.89940969e-07  0.009836415
3.90263782e-07  0.010025821
3.90586594e-07  0.010219439
3.90909407e-07  0.010417281
3.91232219e-07  0.010619358
3.91716438e-07  0.010930442
3.92200657e-07  0.011251125
3.92684875e-07  0.011581446
3.93169094e-07  0.011921448
3.93653313e-07  0.012271172
3.94137532e-07  0.012630658
3.9462175e-07  0.012999948
3.95105969e-07  0.013379086
3.95590188e-07  0.013768111
3.96074407e-07  0.014167066
3.96558625e-07  0.014575994
3.97042844e-07  0.014994937
3.97527063e-07  0.015423938
3.98011282e-07  0.01586304
3.984955e-07  0.016312284
3.98917756e-07  0.016712355
3.99340012e-07  0.017120202
3.99762268e-07  0.017535853
4.00184523e-07  0.017959337
4.00606779e-07  0.018390684
4.01029035e-07  0.018829923
4.01451291e-07  0.019277083
4.01873546e-07  0.019732192
4.02299382e-07  0.020199243
4.02938135e-07  0.020915102
4.03576887e-07  0.021649394
4.04215641e-07  0.022402224
4.04854393e-07  0.023173694
4.05494951e-07  0.023966171
4.06139119e-07  0.024782235
4.06783287e-07  0.025617581
4.07427454e-07  0.026472319
4.08071622e-07  0.027346561
4.08715789e-07  0.028240415
4.09365417e-07  0.029161826
4.10015046e-07  0.030103416
4.10664674e-07  0.031065297
4.11314302e-07  0.032047588
4.1196393e-07  0.033050408
4.12617229e-07  0.034079715
4.13272365e-07  0.035133007
4.139275e-07  0.036207538
4.14582635e-07  0.037303435
4.1523777e-07  0.038420822
4.15894756e-07  0.039563072
4.16555445e-07  0.040733809
4.17216134e-07  0.041926787
4.17876822e-07  0.043142135
4.18537511e-07  0.044379987
4.19198199e-07  0.045640472
4.19864489e-07  0.046934703
4.20530778e-07  0.048252225
4.21197068e-07  0.049593179
4.21863357e-07  0.050957702
4.22529646e-07  0.052345934
4.23199701e-07  0.053766065
4.24095618e-07  0.055702831
4.24991535e-07  0.057683322
4.25887451e-07  0.059707885
4.26787165e-07  0.061785741
4.27690677e-07  0.063917818
4.28594188e-07  0.066095803
4.29497699e-07  0.06832007
4.3040504e-07  0.070600716
4.3131621e-07  0.072938717
4.3222738e-07  0.075324938
4.3313855e-07  0.077759769
4.34053583e-07  0.080254242
4.34972478e-07  0.082809384
4.35891372e-07  0.085415182
4.36810266e-07  0.088072053
4.37733055e-07  0.090792007
4.38659739e-07  0.093576133
4.39586423e-07  0.096413497
4.40513107e-07  0.099304541
4.41443718e-07  0.102262308
4.42378258e-07  0.105287952
4.43312797e-07  0.108369566
4.44247337e-07  0.111507624
4.45185837e-07  0.114716258
4.46128299e-07  0.11799669
4.4707076e-07  0.121335987
4.48013221e-07  0.124734654
4.48959677e-07  0.128207982
4.49910128e-07  0.131757257
4.50860579e-07  0.135368472
4.51811029e-07  0.139042156
4.52765508e-07  0.142794824
4.53724016e-07  0.146627834
4.54682524e-07  0.15052604
4.55641032e-07  0.154490009
4.56603602e-07  0.158537534
4.57570235e-07  0.162670054
4.58536868e-07  0.166871223
4.595035e-07  0.171141638
4.6047423e-07  0.175500464
4.61449058e-07  0.179949216
4.62911298e-07  0.186758119
4.64377671e-07  0.193751839
4.65852306e-07  0.200954415
4.67326942e-07  0.208329208
4.68809912e-07  0.215921702
4.70297049e-07  0.223715197
4.71784185e-07  0.231691056
4.73283928e-07  0.23992175
4.74783671e-07  0.248343041
4.76287652e-07  0.256982174
4.77800108e-07  0.265868671
4.79312564e-07  0.274957181
4.80833568e-07  0.284303635
4.82358845e-07  0.293887301
4.83884123e-07  0.3036852
4.8542233e-07  0.313786191
4.86960537e-07  0.324111288
4.88503091e-07  0.334693841
4.90054337e-07  0.345569869
4.91605583e-07  0.356683782
4.93165597e-07  0.368103894
4.94729994e-07  0.379804756
4.9629439e-07  0.391758258
4.97872047e-07  0.404072727
4.99449705e-07  0.416651776
5.01031821e-07  0.429536007
5.02622853e-07  0.44276921
5.04213885e-07  0.456283699
5.05813908e-07  0.470162499
5.07418427e-07  0.48437465
5.09022945e-07  0.498886031
5.10641066e-07  0.513828122
5.12259186e-07  0.529083922
5.13881878e-07  0.544702738
5.15513715e-07  0.560737661
5.17145553e-07  0.577106728
5.18786612e-07  0.593910546
5.20432282e-07  0.611111676
5.22077952e-07  0.628668948
5.23737572e-07  0.646741478
5.25397193e-07  0.665187883
5.27061503e-07  0.684067894
5.28735192e-07  0.703445784
5.30408881e-07  0.72322262
5.32092029e-07  0.743520107
5.33779907e-07  0.764293115
5.35467783e-07  0.785492026
5.37169968e-07  0.807309087
5.38872153e-07  0.829573696
5.40579148e-07  0.852358103
5.42295763e-07  0.875739985
5.44012378e-07  0.899600111
5.45738693e-07  0.924085473
5.4746986e-07  0.949141872
5.49201026e-07  0.974709736
5.50946868e-07  1.00102124
5.52692709e-07  1.02787097
5.54443484e-07  1.05534652
5.56204124e-07  1.08354197
5.57964765e-07  1.11231409
5.59735356e-07  1.14184069
5.61510922e-07  1.17205691
5.63286488e-07  1.20289153
5.65077106e-07  1.23462513
5.66867723e-07  1.26701057
5.686634e-07  1.30015407
5.70469196e-07  1.33416982
5.72274992e-07  1.3688856
5.74090994e-07  1.40451663
5.75912098e-07  1.44098535
5.77733202e-07  1.47820649
5.79569744e-07  1.51651952
5.81406285e-07  1.55562691
5.83248016e-07  1.59565774
5.85100126e-07  1.63675085
5.86952236e-07  1.67869913
5.88814813e-07  1.72176362
5.90682624e-07  1.7658517
5.92550434e-07  1.81086131
5.94434078e-07  1.85720419
5.96317722e-07  1.90452173
5.98206688e-07  1.95297131
6.00106299e-07  2.00272237
6.02005911e-07  2.05352563
6.03916257e-07  2.10569864
6.05831972e-07  2.15913089
6.07747686e-07  2.2137002
6.09679641e-07  2.26990757
6.11611594e-07  2.32731987
6.13549007e-07  2.38612993
6.15497338e-07  2.44654545
6.17445669e-07  2.50826575
6.19405011e-07  2.57167884
6.21369858e-07  2.63665269
6.23334705e-07  2.70304106
6.25316208e-07  2.77145597
6.27297711e-07  2.84137312
6.29284814e-07  2.91302981
6.31283114e-07  2.98668212
6.33281414e-07  3.06196649
6.35291008e-07  3.13935939
6.37306248e-07  3.21870311
6.39321487e-07  3.29982229
6.41353811e-07  3.38346866
6.43386134e-07  3.4690051
6.45424199e-07  3.55672564
6.4747375e-07  3.6469483
6.49523302e-07  3.73923205
6.51584435e-07  3.83416538
6.5365136e-07  3.93156007
6.55718286e-07  4.0312056
6.57802733e-07  4.1340309
6.59887179e-07  4.2392586
6.61977515e-07  4.34725596
6.64079631e-07  4.45842092
6.66181748e-07  4.57221649
6.68295744e-07  4.68937513
6.7041568e-07  4.80967192
6.72535616e-07  4.93285377
6.74673523e-07  5.06007738
6.76811429e-07  5.1903895
6.78955377e-07  5.32425314
6.81111406e-07  5.46217094
6.83267436e-07  5.60348623
6.8543565e-07  5.74911861
6.87609957e-07  5.89879962
6.89784263e-07  6.05222464
6.91977001e-07  6.21084667
6.94169739e-07  6.37349021
6.96368673e-07  6.54074513
6.98579998e-07  6.71325386
7.00791324e-07  6.89020926
7.03015147e-07  7.07277793
7.05245218e-07  7.2606399
7.07475289e-07  7.45342881
7.09724265e-07  7.65298885
7.1197324e-07  7.85786074
7.14228571e-07  8.06880616
7.16496611e-07  8.2866571
7.18764651e-07  8.51041592
7.21045509e-07  8.74158101
7.23332775e-07  8.97977278
7.25620041e-07  9.22455101
7.27926696e-07  9.47828594
7.30233351e-07  9.73915242
7.32546525e-07  10.0081491
7.34872734e-07  10.2863709
7.37198943e-07  10.5725776
7.39538298e-07  10.868722
7.41884226e-07  11.1743581
7.44230154e-07  11.4889594
7.46595969e-07  11.8156174
7.48961784e-07  12.1520304
7.51334283e-07  12.499532
7.53720153e-07  12.859591
7.56106023e-07  13.230657
7.58505376e-07  13.6153196
7.60911471e-07  14.0130644
7.63317565e-07  14.4232683
7.64935225e-07  14.70629
7.66552886e-07  14.9952969
7.68170547e-07  15.2904384
7.69788208e-07  15.5918687
7.71419581e-07  15.9023846
7.73050955e-07  16.219626
7.74682329e-07  16.5437659
7.76313702e-07  16.8749827
7.77958905e-07  17.2163614
7.79604108e-07  17.5653194
7.81249311e-07  17.9220577
7.82894514e-07  18.2867834
7.84553663e-07  18.6629076
7.86212812e-07  19.0475995
7.87871961e-07  19.4410931
7.8953111e-07  19.8436304
7.91204324e-07  20.2589923
7.92877538e-07  20.6840709
7.94550752e-07  21.1191398
7.96223966e-07  21.5644824
7.97911363e-07  22.0243027
7.99598761e-07  22.4951816
8.01286159e-07  22.9774413
8.02973556e-07  23.4714157
8.04675258e-07  23.9817937
8.0637696e-07  24.5048064
8.08078662e-07  25.0408355
8.09780363e-07  25.5902766
8.1149649e-07  26.1583758
8.13212617e-07  26.7409705
8.14928744e-07  27.338514
8.16644871e-07  27.9514775
8.18375546e-07  28.5857502
8.2010622e-07  29.2367228
8.21836895e-07  29.9049374
8.2356757e-07  30.5909556
8.25312915e-07  31.3014135
8.27058261e-07  32.0311967
8.28803607e-07  32.7809536
8.30548952e-07  33.5513591
8.32309093e-07  34.349922
8.34069234e-07  35.1709519
8.35829375e-07  36.015232
8.37589516e-07  36.8835783
8.39364577e-07  37.7845241
8.41139639e-07  38.7117244
8.429147e-07  39.6661302
8.44689762e-07  40.6487369
8.4647987e-07  41.6692881
8.48269979e-07  42.7206916
8.50060088e-07  43.8041126
8.51850197e-07  44.9207714
8.5365548e-07  46.0818548
8.55460764e-07  47.2794144
8.56814727e-07  48.2023843
8.5816869e-07  49.1473125
8.59526478e-07  50.1176211
8.60891918e-07  51.1170259
8.62257359e-07  52.1408483
8.63622799e-07  53.1898378
8.64988239e-07  54.2647749
8.66353679e-07  55.3664689
8.67730694e-07  56.5054549
8.69107709e-07  57.6734048
8.70484724e-07  58.8712507
8.71861739e-07  60.0999614
8.73238754e-07  61.360545
8.74623551e-07  62.6614557
8.76012239e-07  64.0005732
8.77400927e-07  65.3754556
8.78789615e-07  66.7873178
8.80178303e-07  68.2374261
8.81570914e-07  69.7313657
8.82971374e-07  71.2752547
8.84371834e-07  72.8622597
8.85772294e-07  74.493918
8.87172754e-07  76.1718348
8.88573214e-07  77.8976868
8.89985546e-07  79.6884944
8.91397878e-07  81.5317136
8.9281021e-07  83.4293091
8.94222541e-07  85.3833359
8.95634872e-07  87.395948
8.97055185e-07  89.4812958
8.98479489e-07  91.6367084
8.99903793e-07  93.8589551
9.01328097e-07  96.1507022
9.02752401e-07  98.5147487
9.04180729e-07  100.961035
9.05617107e-07  103.500561
9.07053486e-07  106.123089
9.08489863e-07  108.83212
9.09926241e-07  111.631349
9.11362618e-07  114.524658
9.12811173e-07  117.541939
9.14259727e-07  120.663499
9.15225429e-07  122.804772
9.16191132e-07  124.995916
9.17156834e-07  127.238434
9.18122537e-07  129.533889
9.19088239e-07  131.883898
9.20062128e-07  134.310789
9.21036017e-07  136.796668
9.22009906e-07  139.343396
9.22983795e-07  141.952908
9.23957684e-07  144.627218
9.24931573e-07  147.368419
9.25905462e-07  150.178689
9.2687935e-07  153.060292
9.27861495e-07  156.040966
9.28843639e-07  159.09911
9.29825784e-07  162.237355
9.30807928e-07  165.458434
