E(MeV)  pendfb7/U235:2
1e-11  58.9241453
1.02999e-11  58.1096164
1.06087e-11  57.3079956
1.09269e-11  56.5184824
1.12544e-11  55.7417609
1.1592e-11  54.9767278
1.19395e-11  54.2240637
1.22976e-11  53.4828019
1.26662e-11  52.7535682
1.30462e-11  52.0353317
1.34372e-11  51.3289791
1.38403e-11  50.6332586
1.42552e-11  49.9490397
1.46827e-11  49.275274
1.51229e-11  48.6125314
1.55765e-11  47.9599414
1.60434e-11  47.3182723
1.65246e-11  46.6864271
1.70199e-11  46.0651158
1.76044e-11  45.3670514
1.8209e-11  44.681842
1.88343e-11  44.0092887
1.94811e-11  43.3491956
2.01501e-11  42.7013707
2.08421e-11  42.0656248
2.15579e-11  41.4417723
2.22982e-11  40.8296306
2.3064e-11  40.2290203
2.3856e-11  39.6397649
2.46753e-11  39.0616911
2.55226e-11  38.4946284
2.63991e-11  37.9384093
2.73057e-11  37.3928688
2.82434e-11  36.8578451
2.92134e-11  36.3331787
3.02166e-11  35.818713
3.12543e-11  35.3142939
3.23276e-11  34.8197698
3.34378e-11  34.3349916
3.45861e-11  33.8598126
3.57738e-11  33.3940884
3.70024e-11  32.937677
3.82731e-11  32.4904387
3.95875e-11  32.0522357
4.0947e-11  31.6229326
4.23531e-11  31.202396
4.38076e-11  30.7904946
4.5312e-11  30.3870989
4.68681e-11  29.9920814
4.84777e-11  29.6053164
5.01425e-11  29.2266803
5.18644e-11  28.8560508
5.36455e-11  28.4933076
5.54878e-11  28.1383321
5.73933e-11  27.791007
5.93643e-11  27.4512168
6.1403e-11  27.1188473
6.35117e-11  26.793786
6.56928e-11  26.4759215
6.79488e-11  26.165144
7.02822e-11  25.8613447
7.26958e-11  25.5644163
7.51923e-11  25.2742526
7.77745e-11  24.9907484
8.07864e-11  24.6795666
8.39134e-11  24.3766762
8.7163e-11  24.0816553
9.05369e-11  23.7946279
9.4043e-11  23.5151876
9.76831e-11  23.2434622
1.01466e-10  22.9790445
1.05393e-10  22.7220597
1.09475e-10  22.4721071
1.13712e-10  22.2293204
1.18116e-10  21.9932991
1.22688e-10  21.7641619
1.27439e-10  21.5415383
1.32372e-10  21.3255174
1.37498e-10  21.1157577
1.4282e-10  20.9123342
1.48351e-10  20.7149161
1.54746e-10  20.5026344
1.61417e-10  20.2975446
1.68376e-10  20.0994712
1.75635e-10  19.9082533
1.83206e-10  19.7237402
1.91104e-10  19.5457228
1.99343e-10  19.3740354
2.07936e-10  19.2085422
2.17816e-10  19.0334435
2.28169e-10  18.8653201
2.3901e-10  18.7040917
2.5037e-10  18.5494011
2.62266e-10  18.4011617
2.74731e-10  18.2590436
2.89004e-10  18.1108291
3.04018e-10  17.9694503
3.19813e-10  17.8346289
3.36428e-10  17.7061181
3.53906e-10  17.583659
3.73864e-10  17.4575512
3.94953e-10  17.3379033
4.17226e-10  17.2244832
4.42622e-10  17.1089124
4.69564e-10  16.9998313
4.98146e-10  16.8968978
5.30708e-10  16.793047
5.65389e-10  16.695515
6.04888e-10  16.5979855
6.47147e-10  16.5067681
6.95293e-10  16.4163043
7.47007e-10  16.3320778
8.0597e-10  16.2491851
8.73272e-10  16.168196
9.46178e-10  16.0934079
1.029515e-09  16.0208295
1.124941e-09  15.9508542
1.234399e-09  15.883821
1.360225e-09  15.8199848
1.50523e-09  15.7595253
1.672752e-09  15.7025712
1.874643e-09  15.6472597
2.109807e-09  15.5959353
2.394598e-09  15.5469656
2.740871e-09  15.500732
3.163811e-09  15.4574725
3.698583e-09  15.4162369
4.378802e-09  15.3773813
5.272387e-09  15.3402166
6.456412e-09  15.3048792
8.109109e-09  15.2698787
1.0446074e-08  15.2348195
1.3918647e-08  15.1973936
1.9345098e-08  15.1541291
2.5268741e-08  15.1161987
2.53e-08  15.1160134
3.8423001e-08  15.0456114
6.2693015e-08  14.9321153
1.03595803e-07  14.7560955
1.57330501e-07  14.5376969
1.92662359e-07  14.402588
2.14100646e-07  14.3296717
2.30029125e-07  14.2855265
2.43000935e-07  14.2598433
2.54550997e-07  14.2472063
2.62294699e-07  14.2446933
2.74121831e-07  14.2495618
3.11124056e-07  14.292467
3.26358333e-07  14.2987916
3.40427547e-07  14.2929031
3.56608386e-07  14.2739693
3.76718258e-07  14.2379846
4.85284707e-07  13.9894096
5.43865417e-07  13.8642261
6.0694511e-07  13.740494
6.83082857e-07  13.6028907
7.78560713e-07  13.4424667
9.81999562e-07  13.1175041
1.02981552e-06  13.0517669
1.05069882e-06  13.0334718
1.06531713e-06  13.0290517
1.07742944e-06  13.0334092
1.08995942e-06  13.048214
1.09831274e-06  13.065101
1.10666605e-06  13.088175
1.11501937e-06  13.1174775
1.12604575e-06  13.164653
1.15595063e-06  13.3105373
1.16430395e-06  13.3448029
1.17265726e-06  13.3720564
1.18184591e-06  13.3925799
1.19437589e-06  13.4042397
1.21108253e-06  13.3944922
1.22403017e-06  13.372659
1.24491347e-06  13.3229126
1.28693982e-06  13.2092589
1.30709789e-06  13.1653108
1.40956807e-06  12.9987878
1.47812845e-06  12.9033698
1.56161163e-06  12.8028268
1.81833843e-06  12.52635
1.88089546e-06  12.4468593
1.91518152e-06  12.3919576
1.94345249e-06  12.3333359
1.98555819e-06  12.2217957
1.9968365e-06  12.2093994
2.00360348e-06  12.2160285
2.00967873e-06  12.2342467
2.01515247e-06  12.2617238
2.02237059e-06  12.3135485
2.04450616e-06  12.5276346
2.05148368e-06  12.5854481
2.05797998e-06  12.6255986
2.06435599e-06  12.6505406
2.07337864e-06  12.6629309
2.08240128e-06  12.6546996
2.12751453e-06  12.5335953
2.15490236e-06  12.4764475
2.18984001e-06  12.4218642
2.25203038e-06  12.3485168
2.33966226e-06  12.2661129
2.60255791e-06  12.048782
2.78234462e-06  11.8616776
2.91916343e-06  11.7649769
3.05167661e-06  11.6233907
3.07833928e-06  11.6075404
3.09237226e-06  11.6117574
3.11061514e-06  11.6383783
3.12464812e-06  11.6782207
3.16815037e-06  11.8667903
3.18498995e-06  11.9252079
3.19867211e-06  11.9525322
3.21165262e-06  11.9610471
3.22884302e-06  11.950952
3.25515487e-06  11.9074924
3.42525075e-06  11.555853
3.52773621e-06  11.2945649
3.54507874e-06  11.2750893
3.55664042e-06  11.2877759
3.56473359e-06  11.3152728
3.57444541e-06  11.3737061
3.58415722e-06  11.4631423
3.59386904e-06  11.5831817
3.62670422e-06  12.10352
3.63595356e-06  12.2320897
3.64335304e-06  12.3151757
3.65260239e-06  12.3899464
3.66162051e-06  12.4311863
3.66878875e-06  12.4435781
3.68035043e-06  12.4328134
3.69191212e-06  12.3956349
3.74254719e-06  12.1600677
3.76483733e-06  12.0749133
3.7911397e-06  11.9942577
3.83393677e-06  11.8948724
3.89991559e-06  11.7819776
3.99264259e-06  11.6609384
4.4134805e-06  11.275051
4.50264107e-06  11.1804216
4.58288558e-06  11.0725319
4.62746587e-06  10.9937714
4.6681928e-06  10.8989544
4.69574877e-06  10.8130783
4.71574036e-06  10.7327458
4.73735288e-06  10.6213064
4.77625542e-06  10.3774972
4.78544075e-06  10.341103
4.79219466e-06  10.3326549
4.79894857e-06  10.3461454
4.80705327e-06  10.398974
4.8124564e-06  10.4598425
4.81785953e-06  10.5426467
4.82326266e-06  10.6473131
4.82926014e-06  10.7873227
4.83871561e-06  11.0488478
4.85881526e-06  11.6556756
4.86702802e-06  11.868982
4.87329565e-06  12.0019682
4.88053585e-06  12.1175457
4.88864054e-06  12.1966725
4.89869262e-06  12.2269434
4.90752872e-06  12.203838
4.91879474e-06  12.1302096
4.94905836e-06  11.8635198
4.96673055e-06  11.7314743
4.98440274e-06  11.6276662
5.01091101e-06  11.5112119
5.04625539e-06  11.3998408
5.08866864e-06  11.3014238
5.15228851e-06  11.1897298
5.2597354e-06  11.0465595
5.38527862e-06  10.9222615
5.59621385e-06  10.7749418
5.70578141e-06  10.6675
5.7937889e-06  10.5505967
5.87331374e-06  10.4169751
5.94647557e-06  10.2630412
6.11888475e-06  9.78652077
6.18059224e-06  9.64003424
6.20687506e-06  9.5465724
6.22401603e-06  9.45562568
6.24344247e-06  9.31410786
6.28129544e-06  8.95651825
6.29029445e-06  8.88979812
6.30100757e-06  8.85520504
6.30743543e-06  8.87155981
6.31386329e-06  8.92648328
6.31921984e-06  9.00839326
6.32457639e-06  9.12869562
6.32972607e-06  9.28486425
6.33487573e-06  9.48408507
6.34017685e-06  9.7363638
6.34578086e-06  10.0558043
6.35144466e-06  10.4320502
6.35710846e-06  10.8574279
6.36304107e-06  11.3474515
6.38552978e-06  13.3794405
6.39215222e-06  13.9403468
6.39767093e-06  14.3637636
6.40346557e-06  14.752516
6.40870834e-06  15.047048
6.4131233e-06  15.2493019
6.41871099e-06  15.443073
6.42378131e-06  15.5589008
6.4323008e-06  15.6317852
6.44264837e-06  15.542647
6.44954675e-06  15.3988574
6.45644513e-06  15.2072958
6.48990227e-06  14.0599913
6.50335411e-06  13.6472766
6.51715087e-06  13.2895978
6.53101895e-06  12.9931093
6.54495833e-06  12.7479539
6.56168075e-06  12.507695
6.58118619e-06  12.2815754
6.60069164e-06  12.0967524
6.6299498e-06  11.8721132
6.6689607e-06  11.635582
6.70797159e-06  11.4424319
6.84841079e-06  10.8686278
6.90302604e-06  10.6159686
6.93579519e-06  10.4276492
6.98034563e-06  10.1343242
6.99587196e-06  10.0587576
7.00757523e-06  10.0366567
7.0192785e-06  10.0623993
7.02708067e-06  10.1139585
7.03488285e-06  10.1972718
7.04424547e-06  10.3415429
7.05492248e-06  10.5630248
7.06500434e-06  10.8186004
7.09452979e-06  11.6527596
7.10533178e-06  11.9122954
7.11604377e-06  12.1116775
7.12441531e-06  12.22095
7.13341697e-06  12.2923451
7.14241863e-06  12.3196737
7.15592112e-06  12.2931762
7.16942362e-06  12.2108122
7.22163325e-06  11.7683227
7.24863823e-06  11.5847687
7.28323583e-06  11.4055253
7.33074599e-06  11.22399
7.38881397e-06  11.0575968
7.47327648e-06  10.8702205
7.77734152e-06  10.3492751
7.9716053e-06  9.97742789
8.06451406e-06  9.76948111
8.14681483e-06  9.55464219
8.21006135e-06  9.36182947
8.28941636e-06  9.07175431
8.35539078e-06  8.77359348
8.41011878e-06  8.4716628
8.44660412e-06  8.2350323
8.48308945e-06  7.96491806
8.51957479e-06  7.65976946
8.57795133e-06  7.13753577
8.59436973e-06  7.01328696
8.60896387e-06  6.93432723
8.62264587e-06  6.90667925
8.6317672e-06  6.92526428
8.64088853e-06  6.98390493
8.64772954e-06  7.06047709
8.65457053e-06  7.17039698
8.66127472e-06  7.31544129
8.6679789e-06  7.50239957
8.67468308e-06  7.73608666
8.68138726e-06  8.02094857
8.68809144e-06  8.36077455
8.6939747e-06  8.7065253
8.6994475e-06  9.06909166
8.70492029e-06  9.47129244
8.71221736e-06  10.0679817
8.71951442e-06  10.7298982
8.7275412e-06  11.524906
8.73556797e-06  12.3767677
8.76431842e-06  15.5950714
8.77351272e-06  16.5597111
8.78299891e-06  17.459895
8.79029598e-06  18.0672555
8.79860567e-06  18.6538432
8.8055974e-06  19.0535961
8.81258912e-06  19.36468
8.8202609e-06  19.6045352
8.82793267e-06  19.7424377
8.83560444e-06  19.7859925
8.84327621e-06  19.7453138
8.85350524e-06  19.5804834
8.86643663e-06  19.2339882
8.87936802e-06  18.7869462
8.925921e-06  16.9956543
8.94661122e-06  16.2992773
8.96385306e-06  15.7947318
8.98109491e-06  15.3545227
8.99833676e-06  14.9695758
9.02419953e-06  14.473707
9.0500623e-06  14.0483858
9.08713228e-06  13.5147226
9.1360525e-06  12.8873291
9.17160325e-06  12.4994664
9.18955007e-06  12.3561079
9.21656231e-06  12.2639801
9.23339811e-06  12.3053964
9.24778768e-06  12.404169
9.30189248e-06  13.0519645
9.3180088e-06  13.2110707
9.33585187e-06  13.3176917
9.35283157e-06  13.3467054
9.37441593e-06  13.298136
9.51082888e-06  12.4880937
9.56935849e-06  12.2283439
9.63152555e-06  12.0195769
9.70057065e-06  11.8761767
9.79686345e-06  11.7556503
9.88151645e-06  11.5831707
9.9807192e-06  11.3052883
1.00816157e-05  10.9595405
1.01087172e-05  10.92297
1.01358186e-05  10.9691838
1.02031204e-05  11.3342673
1.02261567e-05  11.4191772
1.02499628e-05  11.4459399
1.0270819e-05  11.4271895
1.03793461e-05  11.1617726
1.05378651e-05  10.8543268
1.09323193e-05  10.2388964
1.10567383e-05  9.99350031
1.11396842e-05  9.79386191
1.12226302e-05  9.5499746
1.12871438e-05  9.31272673
1.13332249e-05  9.10392734
1.1378154e-05  8.85287493
1.14109868e-05  8.62646642
1.14438195e-05  8.3482842
1.14668601e-05  8.11356744
1.15187014e-05  7.50842712
1.15302216e-05  7.40557168
1.15434589e-05  7.34993641
1.15509361e-05  7.36491206
1.15584133e-05  7.42607625
1.15640212e-05  7.50889925
1.15689008e-05  7.61085774
1.15749215e-05  7.77971431
1.15809422e-05  8.00105855
1.15869629e-05  8.2793725
1.15929836e-05  8.61796585
1.15990043e-05  9.01860612
1.1605025e-05  9.48117897
1.16110457e-05  10.0034089
1.16170664e-05  10.5806706
1.16256459e-05  11.4839545
1.16530703e-05  14.6427699
1.16625348e-05  15.6552157
1.16689649e-05  16.2705333
1.16771531e-05  16.9420643
1.1684378e-05  17.4130159
1.16896762e-05  17.6793792
1.16954561e-05  17.891047
1.17013564e-05  18.0221903
1.17073771e-05  18.070165
1.17146019e-05  18.0206615
1.17230309e-05  17.8318709
1.17302558e-05  17.5761629
1.17392868e-05  17.163289
1.17779913e-05  14.9637216
1.17923805e-05  14.2136676
1.18067697e-05  13.5671583
1.18211589e-05  13.026031
1.18355481e-05  12.5781352
1.18499373e-05  12.2062382
1.18643265e-05  11.8933822
1.18859104e-05  11.5043964
1.19074942e-05  11.1815966
1.19434672e-05  10.7328873
1.19866348e-05  10.2739851
1.21118209e-05  9.03846075
1.21785868e-05  8.32778246
1.22016096e-05  8.11548204
1.22131209e-05  8.04065053
1.22260713e-05  8.00502801
1.22361436e-05  8.03255485
1.22447772e-05  8.11153626
1.22505329e-05  8.20095798
1.22562886e-05  8.32620091
1.22623321e-05  8.50294495
1.22686633e-05  8.74597989
1.22741311e-05  9.0104903
1.22788796e-05  9.2862344
1.2283628e-05  9.60889856
1.22882326e-05  9.97019394
1.22925493e-05  10.3550852
1.22968661e-05  10.7871234
1.23011829e-05  11.2683296
1.23069386e-05  11.9890799
1.23126943e-05  12.8022245
1.231845e-05  13.707929
1.23242057e-05  14.7039587
1.23299613e-05  15.7853869
1.2335717e-05  16.9444863
1.23443505e-05  18.8045351
1.23702182e-05  24.7370579
1.23778228e-05  26.3938028
1.23854273e-05  27.9202678
1.23924615e-05  29.1757031
1.23979748e-05  30.0329773
1.24046287e-05  30.8999143
1.24110926e-05  31.5521484
1.24182219e-05  32.0440569
1.24240679e-05  32.2674097
1.24299138e-05  32.3316631
1.24370431e-05  32.2050961
1.24441723e-05  31.8718118
1.24513016e-05  31.3570318
1.24584308e-05  30.6900842
1.24679364e-05  29.6186414
1.25021567e-05  25.0770613
1.25164152e-05  23.2864645
1.25259208e-05  22.2059783
1.2535019e-05  21.2684102
1.25437098e-05  20.4623936
1.25524006e-05  19.7408056
1.25654368e-05  18.8037108
1.25783475e-05  18.0254621
1.25912581e-05  17.3707694
1.26041688e-05  16.8162147
1.26170794e-05  16.3419471
1.26355232e-05  15.7726176
1.2653967e-05  15.2999785
1.26724108e-05  14.8999016
1.26996155e-05  14.4090529
1.27258979e-05  14.0218942
1.27521803e-05  13.7065174
1.2779016e-05  13.4543078
1.28088949e-05  13.2546062
1.28451185e-05  13.1104777
1.2945379e-05  12.8238365
1.310285e-05  12.0587136
1.31696699e-05  11.8129889
1.32156086e-05  11.7067632
1.33419399e-05  11.6013465
1.33995863e-05  11.4688353
1.35252547e-05  11.0616406
1.359801e-05  10.8980343
1.36773795e-05  10.8286959
1.37435207e-05  10.8589842
1.38228902e-05  10.9755694
1.39378501e-05  11.2395889
1.40745411e-05  11.6210646
1.41386391e-05  11.7424008
1.41849749e-05  11.7703395
1.42313108e-05  11.7416922
1.42969534e-05  11.6149463
1.44396521e-05  11.1556585
1.44488328e-05  11.1473304
1.44671941e-05  11.1640615
1.44887956e-05  11.2547058
1.45082369e-05  11.4063559
1.45751487e-05  12.1163409
1.45892545e-05  12.2089786
1.46159178e-05  12.2700984
1.463398e-05  12.2345635
1.47163043e-05  11.7798334
1.47613968e-05  11.5689022
1.4820213e-05  11.3677998
1.50993941e-05  10.6890797
1.51778158e-05  10.4444921
1.52625112e-05  10.1085754
1.53036827e-05  10.0206775
1.53252485e-05  10.0562721
1.53401487e-05  10.130079
1.53550488e-05  10.2490225
1.53748465e-05  10.4743476
1.54335256e-05  11.3428474
1.54553991e-05  11.5915585
1.54736271e-05  11.7194508
1.54956309e-05  11.7724621
1.55184159e-05  11.7291648
1.55470598e-05  11.5858085
1.56147637e-05  11.1620498
1.56668436e-05  10.890407
1.58059524e-05  10.2802543
1.58661475e-05  9.95935942
1.59440059e-05  9.43133235
1.59625436e-05  9.34241674
1.59773738e-05  9.31901155
1.59884964e-05  9.34335663
1.5999619e-05  9.41386071
1.60107417e-05  9.53847494
1.60196398e-05  9.68084418
1.60300209e-05  9.89635219
1.60422558e-05  10.215844
1.60558995e-05  10.6430307
1.60945321e-05  12.003936
1.61071378e-05  12.3936748
1.61207073e-05  12.7320325
1.61316075e-05  12.9294208
1.61427302e-05  13.0575233
1.61566335e-05  13.1163621
1.61701659e-05  13.0782456
1.61849961e-05  12.9524222
1.62586102e-05  11.9237967
1.62895588e-05  11.5716144
1.63205073e-05  11.2944382
1.63735181e-05  10.9231055
1.64866077e-05  10.2664506
1.65219483e-05  10.1099005
1.65572888e-05  10.0530306
1.65811436e-05  10.1085268
1.66032314e-05  10.241609
1.66216085e-05  10.409001
1.66908759e-05  11.2162876
1.67126103e-05  11.4067422
1.67375254e-05  11.5399701
1.67649143e-05  11.5847607
1.67940702e-05  11.5452302
1.69354322e-05  11.0598618
1.70131813e-05  10.8496067
1.71489e-05  10.5624823
1.75172773e-05  9.88345482
1.76316362e-05  9.62622234
1.77055141e-05  9.41800416
1.78705913e-05  8.80850029
1.79172252e-05  8.72796854
1.79349462e-05  8.74587284
1.79587295e-05  8.82691506
1.79769167e-05  8.93610368
1.79955703e-05  9.08816976
1.807561e-05  9.94364311
1.81009562e-05  10.1612897
1.81241122e-05  10.2976453
1.81467375e-05  10.3685786
1.81661828e-05  10.3837402
1.81953188e-05  10.3423607
1.82304557e-05  10.2248287
1.83827154e-05  9.55284425
1.86247693e-05  8.56785014
1.8695043e-05  8.25044928
1.87887412e-05  7.75373294
1.88929318e-05  7.09917553
1.90023657e-05  6.47650322
1.90449867e-05  6.20550962
1.90626473e-05  6.12755771
1.90744211e-05  6.11080862
1.90832514e-05  6.12747242
1.90922184e-05  6.17922267
1.91012537e-05  6.27692406
1.91072772e-05  6.37316039
1.91142775e-05  6.52209575
1.91202603e-05  6.68562057
1.91262431e-05  6.88706006
1.9132226e-05  7.13088866
1.91382088e-05  7.42169695
1.91445905e-05  7.78892671
1.91503739e-05  8.1771727
1.91554594e-05  8.56546171
1.91605447e-05  9.00035497
1.91656301e-05  9.48430041
1.91707155e-05  10.0194603
1.91757411e-05  10.6004549
1.9180647e-05  11.2189585
1.91871882e-05  12.1240843
1.91937294e-05  13.121913
1.92002706e-05  14.2117197
1.92063332e-05  15.301716
1.92123958e-05  16.4649689
1.92187775e-05  17.7629319
1.92287329e-05  19.9191074
1.92391989e-05  22.3193054
1.92672695e-05  28.9537203
1.92775686e-05  31.2520625
1.9286151e-05  33.0259996
1.92961067e-05  34.8673226
1.93044604e-05  36.1956424
1.93118986e-05  37.1896831
1.9320481e-05  38.0979071
1.93290635e-05  38.7389228
1.9337646e-05  39.1093207
1.93453345e-05  39.2154883
1.9353023e-05  39.1179083
1.93622492e-05  38.7516423
1.93729774e-05  38.0234792
1.93908575e-05  36.2416942
1.94051617e-05  34.4732241
1.94437829e-05  29.280339
1.94620208e-05  27.0151192
1.94752521e-05  25.533621
1.94895563e-05  24.1013713
1.95038604e-05  22.8435117
1.95181646e-05  21.7482147
1.95324687e-05  20.798204
1.95467729e-05  19.9743162
1.95610771e-05  19.2578763
1.95753813e-05  18.6319448
1.95954071e-05  17.8802175
1.96147177e-05  17.2658056
1.96340283e-05  16.7370703
1.96597758e-05  16.136443
1.96855232e-05  15.6284881
1.97141316e-05  15.1474233
1.97570441e-05  14.5486444
1.97999565e-05  14.0574367
1.98493249e-05  13.5867844
1.98986932e-05  13.1886515
1.99669084e-05  12.7222721
2.00393722e-05  12.3132203
2.00951137e-05  12.0814507
2.0228385e-05  11.7900604
2.02695315e-05  11.6394276
2.03261079e-05  11.345308
2.05044305e-05  10.2880918
2.0537247e-05  10.167216
2.05625251e-05  10.1388851
2.05844327e-05  10.1688601
2.06565594e-05  10.4454592
2.06770347e-05  10.4724143
2.06973413e-05  10.4369704
2.07180786e-05  10.3309754
2.07389241e-05  10.1592633
2.07652554e-05  9.87067348
2.08401532e-05  8.87032725
2.08623885e-05  8.60221297
2.08793575e-05  8.45025613
2.08969117e-05  8.38311047
2.09056888e-05  8.40078085
2.09144659e-05  8.46368682
2.09230089e-05  8.57717056
2.09310838e-05  8.73994706
2.09371692e-05  8.90294064
2.0944659e-05  9.15618041
2.09513296e-05  9.43463964
2.0957181e-05  9.72263262
2.09630324e-05  10.0533352
2.09688838e-05  10.4279843
