E(MeV)  pendfb7/Pu239:18
1e-11  36530.2554
1.02999e-11  35994.5137
1.06087e-11  35466.7939
1.09269e-11  34946.5696
1.12544e-11  34434.2927
1.1592e-11  33929.2363
1.19395e-11  33431.8505
1.22976e-11  32941.4975
1.26662e-11  32458.5922
1.30462e-11  31982.4528
1.34372e-11  31513.6683
1.38403e-11  31051.409
1.42552e-11  30596.2538
1.46827e-11  30147.5066
1.51229e-11  29705.548
1.55765e-11  29269.7988
1.60434e-11  28840.7733
1.65246e-11  28417.7398
1.70199e-11  28001.1749
1.75304e-11  27590.4925
1.80559e-11  27186.0197
1.85975e-11  26787.2702
1.9155e-11  26394.5962
1.97295e-11  26007.4698
2.03209e-11  25626.2136
2.09305e-11  25250.3129
2.15579e-11  24880.2011
2.22045e-11  24515.2608
2.28701e-11  24155.9074
2.35561e-11  23801.5806
2.42622e-11  23452.7004
2.49899e-11  23108.712
2.5739e-11  22769.9661
2.6511e-11  22436.0026
2.73057e-11  22107.1086
2.81247e-11  21782.8729
2.89678e-11  21463.5493
2.98367e-11  21148.7312
3.07311e-11  20838.7262
3.16528e-11  20533.0888
3.26017e-11  20232.0942
3.35795e-11  19935.3525
3.45861e-11  19643.1235
3.56235e-11  19355.0127
3.66913e-11  19071.3
3.77919e-11  18791.574
3.89247e-11  18516.1246
4.00923e-11  18244.5371
4.12941e-11  17977.1126
4.25327e-11  17713.4322
4.38076e-11  17453.7935
4.51216e-11  17197.7988
4.64742e-11  16945.7105
4.78681e-11  16697.1745
4.9303e-11  16452.4201
5.07818e-11  16211.1216
5.23041e-11  15973.4916
5.38729e-11  15739.2134
5.54878e-11  15508.507
5.71521e-11  15281.0524
5.88653e-11  15057.0604
6.0631e-11  14836.2187
6.24484e-11  14618.7577
6.43215e-11  14404.3549
6.62496e-11  14193.2162
6.82368e-11  13985.0478
7.02822e-11  13780.0646
7.23903e-11  13577.9612
7.45603e-11  13378.9421
7.67967e-11  13182.72
7.90987e-11  12989.4986
8.14712e-11  12798.9961
8.39134e-11  12611.3941
8.64304e-11  12426.4322
8.90212e-11  12244.2986
9.16913e-11  12064.7274
9.44399e-11  11887.8916
9.72725e-11  11713.5495
1.00188e-10  11541.8621
1.03193e-10  11372.6201
1.06287e-10  11205.9079
1.09475e-10  11041.559
1.12756e-10  10879.7358
1.16139e-10  10720.1582
1.1962e-10  10563.0609
1.23208e-10  10408.1439
1.26901e-10  10255.6071
1.30707e-10  10105.2247
1.34626e-10  9957.10576
1.38664e-10  9811.06964
1.4282e-10  9667.29637
1.47104e-10  9525.52614
1.51513e-10  9385.92596
1.56058e-10  9248.28854
1.60736e-10  9112.7489
1.65557e-10  8979.12436
1.7052e-10  8847.52674
1.75635e-10  8717.77799
1.80899e-10  8590.02792
1.86325e-10  8464.07629
1.91911e-10  8340.02772
1.97667e-10  8217.73396
2.03592e-10  8097.30787
2.09699e-10  7978.57368
2.15985e-10  7861.65652
2.22463e-10  7746.38509
2.29132e-10  7632.86793
2.36004e-10  7520.95713
2.43079e-10  7410.74241
2.5037e-10  7302.08296
2.57875e-10  7195.08605
2.6561e-10  7089.59006
2.73572e-10  6985.71062
2.81777e-10  6883.29407
2.90224e-10  6782.43334
2.98929e-10  6682.99574
3.0789e-10  6585.07672
3.17125e-10  6488.5321
3.26631e-10  6393.46855
3.36428e-10  6299.73848
3.46513e-10  6207.44157
3.56906e-10  6116.44361
3.67605e-10  6026.83335
3.78631e-10  5938.48387
3.89981e-10  5851.48628
4.01678e-10  5765.7112
4.13719e-10  5681.24725
4.26128e-10  5597.97073
4.38901e-10  5515.96771
4.52066e-10  5435.11864
4.65617e-10  5355.50339
4.79583e-10  5277.01014
4.93959e-10  5199.71417
5.08775e-10  5123.50793
5.24026e-10  5048.46412
5.39744e-10  4974.47791
5.55923e-10  4901.62118
5.72598e-10  4829.79077
5.89762e-10  4759.05723
6.07452e-10  4689.31918
6.25661e-10  4620.64778
6.44427e-10  4552.94325
6.63744e-10  4486.27202
6.83653e-10  4420.54067
7.04146e-10  4355.81266
7.25267e-10  4291.99617
7.47007e-10  4229.15588
7.69413e-10  4167.20141
7.92477e-10  4106.1911
8.16247e-10  4046.04225
8.40715e-10  3986.81101
8.65932e-10  3928.41482
8.91889e-10  3870.91141
9.18641e-10  3814.21764
9.46178e-10  3758.39116
9.74558e-10  3703.35108
1.003771e-09  3649.15205
1.033879e-09  3595.71693
1.064871e-09  3543.09878
1.096811e-09  3491.22176
1.129689e-09  3440.13874
1.163573e-09  3389.77554
1.198452e-09  3340.18212
1.234399e-09  3291.28842
1.271402e-09  3243.14173
1.309537e-09  3195.67379
1.348791e-09  3148.93283
1.389247e-09  3102.85118
1.430892e-09  3057.4733
1.47381e-09  3012.73644
1.517989e-09  2968.6833
1.563521e-09  2925.2516
1.610389e-09  2882.48534
1.658691e-09  2840.32247
1.708412e-09  2798.8043
1.759655e-09  2757.87255
1.812403e-09  2717.56716
1.866765e-09  2677.83061
1.922723e-09  2638.70309
1.980394e-09  2600.12761
2.039758e-09  2562.14333
2.100939e-09  2524.69563
2.163917e-09  2487.82114
2.228823e-09  2451.46773
2.295634e-09  2415.67179
2.36449e-09  2380.38164
2.435368e-09  2345.63243
2.508415e-09  2311.3748
2.583608e-09  2277.64207
2.661102e-09  2244.38657
2.740871e-09  2211.64155
2.823082e-09  2179.3597
2.907706e-09  2147.57347
2.994921e-09  2116.23737
3.084697e-09  2085.38211
3.177221e-09  2054.9641
3.272461e-09  2025.01342
3.370617e-09  1995.48723
3.471655e-09  1966.41488
3.575785e-09  1937.7548
3.682973e-09  1909.53555
3.793441e-09  1881.71683
3.907154e-09  1854.32598
4.024346e-09  1827.32429
4.14498e-09  1800.73816
4.269306e-09  1774.53001
4.397283e-09  1748.72545
4.529177e-09  1723.288
4.664944e-09  1698.2426
4.804866e-09  1673.55376
4.948897e-09  1649.24575
5.097336e-09  1625.28402
5.250134e-09  1601.69214
5.407609e-09  1578.43655
5.569708e-09  1555.54028
5.736768e-09  1532.97058
5.908733e-09  1510.74983
6.085962e-09  1488.8463
6.268395e-09  1467.28158
6.456412e-09  1446.025
6.649949e-09  1425.09765
6.849411e-09  1404.46965
7.054729e-09  1384.16319
7.266331e-09  1364.14605
7.484147e-09  1344.43983
7.70863e-09  1325.01665
7.939704e-09  1305.89595
8.17785e-09  1287.05061
8.42299e-09  1268.49939
8.675632e-09  1250.21619
8.935694e-09  1232.21915
9.203714e-09  1214.48297
9.479605e-09  1197.02526
9.76394e-09  1179.82144
1.0056625e-08  1162.8886
1.0358267e-08  1146.20284
1.0668767e-08  1129.78072
1.098877e-08  1113.59892
1.131817e-08  1097.67345
1.1657652e-08  1081.98158
1.2007102e-08  1066.53883
1.2367248e-08  1051.32311
1.2737969e-08  1036.34952
1.3120036e-08  1021.59676
1.3513323e-08  1007.07954
1.3918647e-08  992.777489
1.4335873e-08  978.705009
1.4765869e-08  964.842458
1.5208491e-08  951.203933
1.5664661e-08  937.770419
1.6134225e-08  924.555615
1.6618162e-08  911.541077
1.7116308e-08  898.740083
1.7629702e-08  886.134771
1.8158171e-08  873.73803
1.8702814e-08  861.532632
1.926345e-08  849.531135
1.9841246e-08  837.716963
2.0436008e-08  826.102366
2.1048973e-08  814.671363
2.1679938e-08  803.435744
2.2330215e-08  792.379973
2.2999587e-08  781.515299
2.3689445e-08  770.826542
2.4399561e-08  760.324583
2.5268741e-08  748.109611
2.53e-08  747.682733
2.6058858e-08  737.570294
2.684e-08  727.639578
2.7645049e-08  717.877639
2.8473738e-08  708.295334
2.9327791e-08  698.880209
3.0206922e-08  689.64274
3.111296e-08  680.570995
3.2045604e-08  671.675257
3.3006792e-08  662.944339
3.3996206e-08  654.388382
3.5015901e-08  645.99669
3.6065539e-08  637.778848
3.7147303e-08  629.724291
3.8260833e-08  621.842109
3.9408443e-08  614.122502
4.0589752e-08  606.575003
4.1807217e-08  599.191279
4.3060432e-08  591.981381
4.4352004e-08  584.93798
4.5681502e-08  578.071046
4.705169e-08  571.373906
4.8462114e-08  564.856426
4.9915706e-08  558.512808
5.1411981e-08  552.353061
5.2954052e-08  546.372454
5.4541406e-08  540.581266
5.6177342e-08  534.975999
5.7861316e-08  529.567334
5.9596832e-08  524.353158
6.1383309e-08  519.344705
6.3224464e-08  514.541464
6.5119683e-08  509.955402
6.7072909e-08  505.58789
6.9083489e-08  501.451906
7.1155607e-08  497.551156
7.328857e-08  493.900222
7.5486817e-08  490.505898
7.7749613e-08  487.3845
8.0081665e-08  484.544891
8.2482197e-08  482.00355
8.49562e-08  479.772498
8.7135088e-08  478.123077
8.9369858e-08  476.73039
9.1661944e-08  475.609272
9.4012815e-08  474.77514
9.6423979e-08  474.244709
9.9314389e-08  474.035062
1.01812383e-07  474.223565
1.04423584e-07  474.783937
1.06649721e-07  475.553684
1.08925255e-07  476.618002
1.11247359e-07  477.993878
1.13620991e-07  479.704301
1.16043201e-07  481.769113
1.1851916e-07  484.216877
1.2104579e-07  487.071076
1.23628486e-07  490.366994
1.25733368e-07  493.34132
1.27874086e-07  496.636988
1.30051253e-07  500.274714
1.32265487e-07  504.277399
1.34517421e-07  508.670421
1.36807695e-07  513.481691
1.39136964e-07  518.741642
1.4150589e-07  524.483299
1.4330774e-07  529.123817
1.45135118e-07  534.078674
1.4698318e-07  539.351658
1.48857426e-07  544.976774
1.50752886e-07  550.958881
1.526752e-07  557.337219
1.54619273e-07  564.118046
1.5659089e-07  571.346689
1.58584823e-07  579.031199
1.60607006e-07  587.224055
1.62652077e-07  595.935644
1.64726124e-07  605.226907
1.66823646e-07  615.111271
1.68950886e-07  625.659758
1.70383082e-07  633.071341
1.7182742e-07  640.807548
1.73284001e-07  648.884293
1.74752929e-07  657.318481
1.7623431e-07  666.12808
1.77728248e-07  675.332173
1.7923485e-07  684.951062
1.80754224e-07  695.006356
1.82286478e-07  705.521047
1.8383172e-07  716.519622
1.85390062e-07  728.028193
1.86961613e-07  740.074569
1.88546487e-07  752.688442
1.90144795e-07  765.901462
1.91756653e-07  779.747447
1.93382174e-07  794.262471
1.95021475e-07  809.485094
1.96674672e-07  825.456497
1.97923321e-07  837.948342
1.99179007e-07  850.896093
2.00445337e-07  864.357933
2.01718824e-07  878.318867
2.02999498e-07  892.800634
2.04287388e-07  907.826024
2.05586196e-07  923.463847
2.06892345e-07  939.697991
2.08205864e-07  956.554957
2.09526785e-07  974.062558
2.10858904e-07  992.30229
2.12198551e-07  1011.25666
2.13545759e-07  1030.95787
2.14900558e-07  1051.43954
2.16266842e-07  1072.7982
2.17640847e-07  1095.01443
2.19022607e-07  1118.12683
2.20412153e-07  1142.1755
2.21813478e-07  1167.27429
2.23222723e-07  1193.40057
2.24639921e-07  1220.59941
2.26065105e-07  1248.91724
2.2750237e-07  1278.48679
2.28947758e-07  1309.27937
2.30401303e-07  1341.34513
2.31863039e-07  1374.73489
2.33337167e-07  1409.59999
2.34819624e-07  1445.89996
2.36310448e-07  1483.68579
2.37809674e-07  1523.00714
2.3881763e-07  1550.20146
2.40333837e-07  1592.27207
2.41858588e-07  1636.00566
2.43396265e-07  1681.57115
2.44942631e-07  1728.88034
2.46497724e-07  1777.95794
2.48061581e-07  1828.81908
2.49638694e-07  1881.61861
2.51224721e-07  1936.20581
2.52819698e-07  1992.5536
2.54423663e-07  2050.61543
2.56041225e-07  2110.4932
2.57667928e-07  2171.93039
2.59852179e-07  2256.09115
2.62054946e-07  2342.49201
2.68775918e-07  2609.3917
2.71054332e-07  2698.2854
2.72775203e-07  2763.8552
2.74505772e-07  2827.88295
2.75669265e-07  2869.59071
2.76832758e-07  2910.03108
2.78006113e-07  2949.36135
2.79179469e-07  2987.06092
2.80362771e-07  3023.25403
2.81546073e-07  3057.43958
2.82739406e-07  3089.70845
2.83932739e-07  3119.59258
2.84835326e-07  3140.51248
2.85737913e-07  3159.90861
2.8664305e-07  3177.76582
2.87553288e-07  3194.05393
2.88463526e-07  3208.6115
2.89378908e-07  3221.45427
2.90296862e-07  3232.47649
2.91214816e-07  3241.59821
2.92140552e-07  3248.83688
2.93066287e-07  3254.0776
2.94120278e-07  3257.58381
2.94993946e-07  3258.48912
2.9581782e-07  3257.67484
2.96832592e-07  3254.4463
2.9777419e-07  3249.26066
2.98715789e-07  3241.98233
2.99665369e-07  3232.54598
3.00614949e-07  3221.03536
3.01567212e-07  3207.44768
3.02524842e-07  3191.76495
3.03482472e-07  3174.11154
3.04445513e-07  3154.43163
3.05411261e-07  3132.8235
3.06377009e-07  3109.41315
3.07350943e-07  3084.05883
3.08324877e-07  3057.03645
3.09301563e-07  3028.35203
3.10283753e-07  2997.99853
3.11265944e-07  2966.23048
3.12253685e-07  2932.95678
3.13574373e-07  2886.5672
3.14900659e-07  2838.02073
3.16232543e-07  2787.54323
3.17570072e-07  2735.36187
3.18913246e-07  2681.70623
3.20939394e-07  2598.92295
3.23659997e-07  2485.50285
3.28475936e-07  2283.17381
3.30559887e-07  2196.63209
3.32661505e-07  2110.73311
3.34068521e-07  2054.20895
3.35481476e-07  1998.36778
3.3690042e-07  1943.31204
3.38325352e-07  1889.13383
3.39756325e-07  1835.91126
3.41193337e-07  1783.71319
3.42636439e-07  1732.59577
3.44085633e-07  1682.60688
3.45175599e-07  1645.91018
3.46271707e-07  1609.79326
3.47367816e-07  1574.46808
3.48470119e-07  1539.74232
3.4957552e-07  1505.72189
3.5068092e-07  1472.50173
3.51795691e-07  1439.80463
3.52910461e-07  1407.90817
3.54028382e-07  1376.71652
3.55152603e-07  1346.14147
3.56276823e-07  1316.34935
3.57407398e-07  1287.16555
3.58541149e-07  1258.66816
3.59674899e-07  1230.92565
3.60818261e-07  1203.69698
3.61961622e-07  1177.20451
3.63108215e-07  1151.35989
3.64261268e-07  1126.08254
3.65414322e-07  1101.50272
3.66573892e-07  1077.46985
3.67736721e-07  1054.0423
3.68899549e-07  1031.27069
3.70072235e-07  1008.95226
3.7124492e-07  987.264755
3.72420919e-07  966.131575
3.73603546e-07  945.483028
3.74786172e-07  925.42216
3.75975482e-07  905.822891
3.77168134e-07  886.73008
3.78360785e-07  868.182411
3.79563547e-07  850.012481
3.80766308e-07  832.363021
3.81972469e-07  815.169831
3.83185426e-07  798.37467
3.84398383e-07  782.059894
3.85618196e-07  766.121723
3.86841436e-07  750.595563
3.88064675e-07  735.511911
3.89298284e-07  720.733807
3.90531893e-07  706.376607
3.91768988e-07  692.387524
3.93013054e-07  678.718634
3.94257121e-07  665.436547
3.95508218e-07  652.456466
3.9676283e-07  639.806924
3.98017442e-07  627.512575
3.9928269e-07  615.461647
4.00547938e-07  603.748077
4.01816761e-07  592.328792
4.03092734e-07  581.164634
4.04368707e-07  570.310053
4.05651891e-07  559.695804
4.06938681e-07  549.345287
4.08225471e-07  539.278836
4.09523168e-07  529.405045
4.10820866e-07  519.801013
4.1212223e-07  510.431636
4.13430929e-07  501.264939
4.14739628e-07  492.345847
4.16055722e-07  483.617685
4.17375514e-07  475.099889
4.18695306e-07  466.80945
4.20026286e-07  458.671295
4.21357266e-07  450.749197
4.22692007e-07  443.014463
4.2403427e-07  435.44093
4.25376533e-07  428.065959
4.26726381e-07  420.842936
4.28531235e-07  411.477468
4.3034374e-07  402.39539
4.32163895e-07  393.586637
4.33991764e-07  385.041224
4.35827348e-07  376.749861
4.37670712e-07  368.703338
4.39521856e-07  360.893092
4.41380847e-07  353.31062
4.43247683e-07  345.948036
4.45122432e-07  338.797492
4.47005094e-07  331.851706
4.48895735e-07  325.103444
4.50794356e-07  318.545985
4.52701024e-07  312.172646
4.5461574e-07  305.977227
4.56538571e-07  299.953555
4.58469517e-07  294.095907
4.60408648e-07  288.398573
4.62355964e-07  282.856266
4.64311533e-07  277.463712
4.66275355e-07  272.216026
4.68247501e-07  267.108321
4.70227971e-07  262.136082
4.72216836e-07  257.294785
4.74214094e-07  252.580259
4.76219818e-07  247.988312
4.78234007e-07  243.515081
4.80256733e-07  239.156686
4.82287997e-07  234.909548
4.8432787e-07  230.770076
4.86376352e-07  226.734955
4.88433516e-07  222.800852
4.90499364e-07  218.964689
4.92573967e-07  215.223372
4.94657327e-07  211.574039
4.96749517e-07  208.013802
4.98850537e-07  204.539996
5.00960463e-07  201.149918
5.03079293e-07  197.841083
5.05207105e-07  194.610965
5.07343897e-07  191.457247
5.09489745e-07  188.377584
5.11644651e-07  185.36982
5.1380869e-07  182.431781
5.15981862e-07  179.561476
5.18164246e-07  176.756885
5.20355841e-07  174.016165
5.22556725e-07  171.337439
5.24766897e-07  168.718994
5.26986438e-07  166.159075
5.29215346e-07  163.656082
5.32577603e-07  160.003523
5.35958835e-07  156.472774
5.39359121e-07  153.058684
5.42788232e-07  149.747175
5.46236721e-07  146.54331
5.49704672e-07  143.442629
5.53192166e-07  140.440891
5.56709223e-07  137.525979
5.60246157e-07  134.702599
5.6380305e-07  131.967073
5.67379989e-07  129.315894
5.70987249e-07  126.738578
5.74614895e-07  124.239489
5.78263013e-07  121.815574
5.8193169e-07  119.463924
5.85631467e-07  117.175412
5.89352151e-07  114.95408
5.93093833e-07  112.797383
5.96856601e-07  110.702891
6.00651266e-07  108.662619
6.04467376e-07  106.680307
6.08305022e-07  104.753822
6.12164295e-07  102.881125
6.16056282e-07  101.055195
6.19970265e-07  99.2794902
6.23906336e-07  97.5522147
6.27864587e-07  95.8716504
6.31856393e-07  94.2315923
6.35870758e-07  92.6352407
6.39907778e-07  91.0810759
6.43967548e-07  89.5676418
6.48061733e-07  88.0894324
6.52179055e-07  86.6494095
6.56319613e-07  85.2462813
6.60483505e-07  83.8788087
6.64682694e-07  82.5420845
6.68905614e-07  81.2388518
6.73152366e-07  79.9680086
6.77423049e-07  78.7284981
6.81729936e-07  77.515932
6.86061162e-07  76.3328605
6.9041683e-07  75.1783504
6.94797045e-07  74.0515075
7.0068684e-07  72.5878909
7.06626562e-07  71.1687961
7.12616636e-07  69.7923987
7.18657487e-07  68.4569232
7.24749546e-07  67.1606881
7.30893248e-07  65.902142
7.3708903e-07  64.6798542
7.43337334e-07  63.4924768
7.49638605e-07  62.3387146
7.55993291e-07  61.2173172
7.62401846e-07  60.1270817
7.68864727e-07  59.0668555
7.75382393e-07  58.0355373
7.8195531e-07  57.0320743
7.88583945e-07  56.0554607
7.95268771e-07  55.1047347
8.02010264e-07  54.1789766
8.08808905e-07  53.2773065
8.15665178e-07  52.3988824
8.22579572e-07  51.5428981
8.29552579e-07  50.7085818
8.36584696e-07  49.8951939
8.43676425e-07  49.1020259
8.5082827e-07  48.3283984
8.58040741e-07  47.5736602
8.65314352e-07  46.8371866
8.72649622e-07  46.1183782
8.80047073e-07  45.4166601
8.87507232e-07  44.7314817
8.95030631e-07  44.0623181
9.02617806e-07  43.4086729
9.10269297e-07  42.7700746
9.17985649e-07  42.1460598
9.25767414e-07  41.5361507
9.33615144e-07  40.9398558
9.415294e-07  40.3567065
9.49510744e-07  39.7862987
9.57559747e-07  39.2282965
9.65676981e-07  38.6823912
9.73863025e-07  38.1482513
9.82118462e-07  37.6255128
9.9044388e-07  37.1138103
9.98839873e-07  36.6128059
1.01157651e-06  35.8801792
1.02301189e-06  35.2490215
1.03376074e-06  34.6774123
1.0445096e-06  34.1256775
1.05556175e-06  33.5780308
1.0666139e-06  33.0492936
1.07777001e-06  32.5337823
1.08913401e-06  32.0265143
1.10049801e-06  31.5363711
1.11986556e-06  30.7382258
1.1354451e-06  30.1280096
1.15146425e-06  29.5277835
1.16748339e-06  28.9532784
1.18395454e-06  28.387792
1.20042568e-06  27.8463178
1.21736159e-06  27.3130185
1.2342975e-06  26.8020047
1.25171127e-06  26.2983522
1.26912505e-06  25.8154132
1.28703018e-06  25.3391095
1.30493532e-06  24.882092
1.32334567e-06  24.4310615
1.34175603e-06  23.998019
1.36068586e-06  23.5703831
1.37961568e-06  23.1595524
1.39907965e-06  22.7536089
1.41854361e-06  22.3633902
1.43855678e-06  21.977593
1.45856995e-06  21.6065327
1.47914782e-06  21.2394762
1.49972569e-06  20.8862528
1.52088419e-06  20.5366867
1.54204269e-06  20.200306
1.57467598e-06  19.7055436
1.60792313e-06  19.2284592
1.6417928e-06  18.7685401
1.67629367e-06  18.3250314
1.71176802e-06  17.8931727
1.74790969e-06  17.4763639
1.78472807e-06  17.0738863
1.8222326e-06  16.6850675
1.86079537e-06  16.3058036
1.90008354e-06  15.9391471
1.94010735e-06  15.5845363
1.98087704e-06  15.2414449
2.0227971e-06  14.9063069
2.06550572e-06  14.5818718
2.10901402e-06  14.267801
2.15333314e-06  13.9642964
2.19890278e-06  13.6667859
2.27656661e-06  13.1920944
2.34080335e-06  12.8276571
2.40685263e-06  12.4768391
2.47476558e-06  12.1390453
2.54459481e-06  11.8137778
2.61639437e-06  11.5005074
2.69021986e-06  11.1988181
2.76612845e-06  10.9082763
2.84417891e-06  10.6285321
2.92443169e-06  10.3592404
3.00694891e-06  10.1001063
3.09179449e-06  9.85087122
3.1790341e-06  9.61146847
3.26873532e-06  9.38235625
3.36096759e-06  9.16154467
3.45580233e-06  8.94990418
3.55331298e-06  8.7473703
3.65357504e-06  8.55391114
3.75666614e-06  8.36953923
3.86266611e-06  8.19432988
