E(MeV)  pendfb7/Zr90:2
1e-11  33.7007333
1.02999e-11  33.2177088
1.06087e-11  32.7420814
1.09269e-11  32.2733766
1.12544e-11  31.8120014
1.1592e-11  31.357301
1.19395e-11  30.9096805
1.22976e-11  30.4685658
1.26662e-11  30.0343301
1.30462e-11  29.60636
1.34372e-11  29.1851849
1.38403e-11  28.7700591
1.42552e-11  28.3615025
1.46827e-11  27.9588898
1.5144e-11  27.5439706
1.55982e-11  27.1537517
1.60658e-11  26.7696345
1.65477e-11  26.3911425
1.70437e-11  26.0186483
1.75549e-11  25.6516231
1.80812e-11  25.2903548
1.86235e-11  24.9344118
1.91818e-11  24.5841165
1.97571e-11  24.2389736
2.03493e-11  23.8993148
2.09597e-11  23.5646703
2.1588e-11  23.2353499
2.22355e-11  22.9109109
2.29021e-11  22.5916397
2.3589e-11  22.2771023
2.42961e-11  21.9676197
2.50248e-11  21.6627455
2.5775e-11  21.3627426
2.65481e-11  21.0672226
2.73439e-11  20.7764771
2.81641e-11  20.4900618
2.90083e-11  20.2083083
2.98784e-11  19.9307674
3.0774e-11  19.6577365
3.16971e-11  19.3888099
3.26472e-11  19.1242772
3.36265e-11  18.8637294
3.46344e-11  18.6074605
3.56733e-11  18.3550721
3.67426e-11  18.1068307
3.78447e-11  17.8623754
3.89791e-11  17.6219456
4.01483e-11  17.3852013
4.13518e-11  17.1523764
4.25921e-11  16.9231374
4.38688e-11  16.6977075
4.53754e-11  16.4444308
4.69336e-11  16.195814
4.85454e-11  15.951785
5.02125e-11  15.7122728
5.19369e-11  15.4772076
5.37205e-11  15.2465209
5.55654e-11  15.0201453
5.74736e-11  14.7980145
5.94473e-11  14.5800636
6.14888e-11  14.3662284
6.36004e-11  14.1564462
6.57846e-11  13.9506551
6.80437e-11  13.7487942
7.03805e-11  13.5508038
7.27974e-11  13.3566252
7.52974e-11  13.1662005
7.78833e-11  12.9794729
8.05579e-11  12.7963865
8.33244e-11  12.6168864
8.61859e-11  12.4409184
8.91456e-11  12.2684293
9.2207e-11  12.0993668
9.53736e-11  11.9336795
9.86488e-11  11.7713164
1.02037e-10  11.6122279
1.05541e-10  11.4563646
1.09165e-10  11.3036784
1.12914e-10  11.1541214
1.16792e-10  11.0076468
1.20803e-10  10.8642084
1.24951e-10  10.7237606
1.29242e-10  10.5862585
1.3368e-10  10.4516578
1.38271e-10  10.319915
1.4302e-10  10.1909869
1.47931e-10  10.0648312
1.53011e-10  9.94140592
1.58266e-10  9.82066972
1.63701e-10  9.70258176
1.69323e-10  9.58710175
1.75138e-10  9.47418984
1.81152e-10  9.36380667
1.87373e-10  9.25591334
1.93808e-10  9.15047138
2.00464e-10  9.04744272
2.07348e-10  8.94678971
2.15378e-10  8.83631852
2.23714e-10  8.72881397
2.32378e-10  8.62410835
2.41373e-10  8.52225896
2.5072e-10  8.42311115
2.60424e-10  8.32671528
2.7051e-10  8.23292132
2.8098e-10  8.14178114
2.91861e-10  8.05315143
3.03158e-10  7.96706164
3.14899e-10  7.88338793
3.27087e-10  7.80216803
3.39754e-10  7.72326776
3.52905e-10  7.6467171
3.66571e-10  7.57239913
3.8076e-10  7.50033066
3.97175e-10  7.42278393
4.14297e-10  7.34785604
4.32157e-10  7.27548392
4.50787e-10  7.20560491
4.70221e-10  7.13815672
4.90492e-10  7.0730775
5.11637e-10  7.01030577
5.33693e-10  6.9497805
5.567e-10  6.89144107
5.83161e-10  6.82970891
6.10868e-10  6.77049285
6.39903e-10  6.71366928
6.70307e-10  6.65920183
7.02167e-10  6.60697392
7.35529e-10  6.55694902
7.73741e-10  6.50476754
8.13938e-10  6.45499913
8.56224e-10  6.40754944
9.00707e-10  6.3623259
9.51516e-10  6.31573378
1.005174e-09  6.27154904
1.061877e-09  6.22963454
1.121759e-09  6.18990996
1.19004e-09  6.14943848
1.262477e-09  6.11124664
1.345e-09  6.07271446
1.432892e-09  6.03652965
1.526554e-09  6.00253591
1.633203e-09  5.96856155
1.747303e-09  5.93679548
1.877264e-09  5.90531045
2.025439e-09  5.87433712
2.185311e-09  5.84562673
2.367795e-09  5.81759205
2.576345e-09  5.79041475
2.803264e-09  5.76543687
3.063043e-09  5.74138522
3.361082e-09  5.71837081
3.703753e-09  5.69648731
4.115884e-09  5.6749946
4.59326e-09  5.65492033
5.147732e-09  5.63627775
5.817937e-09  5.61848727
6.631256e-09  5.60172767
7.62221e-09  5.58614123
8.835675e-09  5.57181669
1.0372745e-08  5.55848331
1.2384534e-08  5.54603249
1.5038261e-08  5.53470375
1.8649908e-08  5.52446479
2.5286378e-08  5.51327441
2.53e-08  5.51325748
3.3568761e-08  5.50551382
4.6656186e-08  5.49886504
6.9083489e-08  5.4933236
1.12720301e-07  5.48884963
2.15915577e-07  5.48543368
5.72414459e-07  5.48298484
0.000215923065  5.42354007
0.0015908907  5.22755895
0.00209620441  5.1241729
0.0024597732  5.01645092
0.002703564  4.91386735
0.002884896  4.80917128
0.003036006  4.6915151
0.00314682  4.57679488
0.003242523  4.44758601
0.003318078  4.31612461
0.003378522  4.18376204
0.003428892  4.04747415
0.003474225  3.89692644
0.003509484  3.7556285
0.003539706  3.61207177
0.003569928  3.4418276
0.003595113  3.27394201
0.0036177795  3.09678771
0.0036328905  2.96188786
0.0036480015  2.81080507
0.0036631125  2.64060628
0.00367444575  2.49830848
0.003685779  2.3414574
0.00369711225  2.16791204
0.00370466775  2.04185415
0.00371222325  1.90660914
0.00371914913  1.77420691
0.00372544538  1.64583893
0.00373174163  1.50967018
0.00373803788  1.36539166
0.00374433413  1.21286319
0.00375063038  1.05224846
0.00375692663  0.884235381
0.00377298207  0.437503205
0.0037762876  0.347560566
0.00377864869  0.285464983
0.0037804746  0.239291854
0.0037819857  0.202622628
0.00378324495  0.173361845
0.0037844255  0.147191328
0.00378529124  0.128883495
0.00378615698  0.111411309
0.00378684956  0.098093117
0.0037875264  0.085693455
0.00378815603  0.074747364
0.00378865973  0.066427082
0.00378913195  0.059000376
0.00378960417  0.051954734
0.00378998194  0.04660616
0.00379035972  0.041524952
0.00379070601  0.037111813
0.00379102083  0.033310414
0.00379133564  0.029716901
0.00379165045  0.026338256
0.00379191804  0.023640798
0.00379213841  0.021543154
0.00379235878  0.019560175
0.00379257915  0.017694574
0.00379278378  0.01606975
0.00379297267  0.014663825
0.00379316156  0.013349934
0.00379335044  0.012129997
0.00379351572  0.011140998
0.00379365738  0.010352682
0.00379379905  0.009619969
0.00379394071  0.008943802
0.00379407451  0.008357797
0.00379420043  0.007853683
0.00379432636  0.007396103
0.00379445228  0.006985755
0.00379457821  0.006623204
0.00379470413  0.006309148
0.00379479858  0.00610578
0.00379489302  0.005930338
0.00379498746  0.005783078
0.00379508191  0.005664272
0.00379517635  0.005574228
0.00379527079  0.005513223
0.00379541246  0.005476796
0.00379552264  0.005494726
0.0037956407  0.005559447
0.00379575876  0.005671826
0.00379587682  0.00583246
0.00379599487  0.006041934
0.00379611292  0.006300873
0.00379620737  0.006544081
0.00379631755  0.006868738
0.00379642773  0.007237976
0.00379653791  0.007652317
0.0037966481  0.008112334
0.00379675828  0.008618477
0.00379686847  0.009171378
0.00379697865  0.009771484
0.00379710458  0.010515954
0.00379724624  0.011429099
0.00379738791  0.012423615
0.00379752957  0.01350059
0.00379767911  0.014728391
0.00379783652  0.0161233
0.00379799393  0.017625065
0.00379815133  0.01923538
0.00379832448  0.021134503
0.00379851337  0.023361642
0.00379870226  0.025754104
0.00379889114  0.028315096
0.00379909577  0.031283934
0.00379931614  0.034712075
0.00379953651  0.038385244
0.00379975687  0.042309052
0.00379999298  0.046798387
0.00380024483  0.051920317
0.00380049668  0.05739546
0.00380074853  0.063233419
0.00380103186  0.070247089
0.00380126798  0.076462915
0.00380158279  0.085290476
0.0038018976  0.094754905
0.00380222815  0.105402046
0.00380251148  0.115126393
0.00380279481  0.125421105
0.00380307814  0.136304032
0.00380345592  0.151761875
0.00380375499  0.164794015
0.00380408554  0.180045893
0.0038044161  0.196220656
0.00380474665  0.213351732
0.00380507721  0.231476011
0.00380540775  0.250629141
0.00380578553  0.273830724
0.0038061633  0.298488199
0.00380654108  0.324665879
0.00380691885  0.352427976
0.00380729663  0.381844248
0.00380770589  0.415660242
0.00380813089  0.453020785
0.00380855588  0.492777276
0.00380898088  0.535050132
0.00380940587  0.5799632
0.00380984661  0.629473494
0.00381031883  0.686011675
0.00381079105  0.746364373
0.00381126327  0.810751783
0.00381173549  0.879408152
0.0038122077  0.95258119
0.00381267993  1.03054127
0.00381315214  1.11356494
0.00381362436  1.20195955
0.00381409658  1.29604616
0.0038145688  1.39616981
0.00381510398  1.5174078
0.00381567064  1.65538927
0.0038162373  1.80398779
0.00381680397  1.96401444
0.00381737063  2.13634317
0.00381793729  2.32193521
0.00381850395  2.5218362
0.00381907062  2.73719218
0.00381963728  2.96924453
0.00382020394  3.21936454
0.0038207706  3.48905166
0.00382133727  3.77995753
0.00382190393  4.09388192
0.00382247059  4.43282269
0.00382303725  4.79897743
0.00382360392  5.19478045
0.00382417058  5.62290258
0.00382473724  6.08632531
0.0038253039  6.5883504
0.00382587057  7.13265907
0.00382643723  7.72332169
0.00382700389  8.36491167
0.00382757055  9.06253295
0.00382813722  9.82191878
0.00382870388  10.6494647
0.00382927054  11.552411
0.0038298372  12.5389098
0.00383040387  13.6181972
0.00383097053  14.8006794
0.00383153719  16.0982378
0.00383210385  17.5243772
0.00383267052  19.0945311
0.00383323718  20.8262505
0.00383380384  22.7397317
0.00383418162  24.127701
0.00383455939  25.6143826
0.00383493717  27.2083928
0.00383531494  28.9190967
0.00383569272  30.7570651
0.00383619642  33.4258504
0.00383666864  36.1798751
0.00383714085  39.2077865
0.00383761308  42.5433852
0.00383808529  46.2247402
0.00383854177  50.1534415
0.00383896677  54.1782745
0.00383939177  58.5995854
0.00383981676  63.464426
0.00384024176  68.8265595
0.00384066675  74.7464838
0.00384109176  81.293529
0.00384151675  88.5450688
0.00384180008  93.814084
0.00384208341  99.4640261
0.00384236674  105.52594
0.00384265007  112.033226
0.0038429334  119.021686
0.00384331118  129.154672
0.00384368895  140.307879
0.00384406673  152.585321
0.0038444445  166.094784
0.00384482228  180.947957
0.00384516857  195.836937
0.00384549913  211.262201
0.00384582968  227.934231
0.00384616024  245.903566
0.00384649079  265.20078
0.00384682764  286.239752
0.00384717708  309.502134
0.003847643  342.652031
0.00384810892  377.902745
0.00384963261  499.011307
0.00385011113  534.649268
0.0038504889  560.263466
0.00385086668  582.8332
0.00385122179  600.64932
0.00385156556  614.281783
0.00385190933  624.008947
0.00385220148  629.036406
0.00385256037  631.048273
0.00385288148  628.990817
0.00385320259  623.430653
0.00385356147  613.358288
0.00385393925  598.822222
0.00385431702  580.856083
0.00385474517  557.200325
0.00385538739  517.272054
0.0038568796  418.898332
0.00385744626  383.662367
0.00385801292  350.864629
0.00385845366  327.255476
0.00385892588  303.868227
0.0038593981  282.429525
0.00385987032  262.858142
0.00386034254  245.038735
0.00386081475  228.83874
0.0038613342  212.722416
0.00386185364  198.215188
0.00386237308  185.143941
0.00386289252  173.349211
0.00386341196  162.686519
0.00386383695  154.713926
0.00386434065  146.047252
0.00386484435  138.140909
0.00386534805  130.91249
0.00386585175  124.289672
0.00386635545  118.208905
0.003867111  109.983509
0.0038676147  105.027204
0.00386824433  99.3522317
0.00386887395  94.190881
0.00386950358  89.4828708
0.0038701332  85.1765457
0.00387107764  79.3737466
0.00387202208  74.2483878
0.00387296652  69.6974031
0.00387391095  65.6365332
0.00387485539  61.9963421
0.00387579983  58.7196068
0.00387674427  55.7588091
0.0038776887  53.0738634
0.00387888499  50.0149208
0.00388008128  47.2830246
0.00388127757  44.8307038
0.00388247385  42.6203885
0.00388367014  40.6205482
0.00388486643  38.8043293
0.00388666086  36.3754115
0.00388851825  34.176348
0.00389040713  32.2129454
0.003892296  30.4794977
0.00389418488  28.9396248
0.00389607375  27.5640389
0.00389802559  26.2898913
0.00390010335  25.07425
0.00390218112  23.9829616
0.00390425888  22.9988991
0.00390702923  21.8307763
0.0039099255  20.7540234
0.0039129477  19.7617995
0.0039159699  18.8825954
0.0039189921  18.099483
0.0039220143  17.3997372
0.0039265476  16.4764476
0.0039310809  15.6782616
0.00393574013  14.9647079
0.00394046232  14.3320812
0.0039451845  13.774865
0.00395148075  13.1281045
0.003957777  12.5709029
0.00396407325  12.0862583
0.0039703695  11.6609804
0.00397886944  11.1643179
0.0039854805  10.829344
0.00399461007  10.4325624
0.00399909615  10.2757523
0.00400141789  10.2298618
0.00400232298  10.2546171
0.00400277154  10.3089838
0.00400317277  10.4160436
0.00400344026  10.5409457
0.00400370775  10.7317241
0.0040039207  10.9481646
0.00400413365  11.239175
0.00400427561  11.4835208
0.00400441758  11.7748566
0.00400455954  12.1190359
0.00400470151  12.5219415
0.00400484347  12.9890592
0.00400500786  13.6167579
0.00400517224  14.3434465
0.00400533662  15.1731759
0.004005501  16.1070347
0.00400568475  17.270966
0.0040058685  18.552067
0.0040061135  20.412079
0.00400676765  25.7117057
0.0040069808  27.3176331
0.0040071964  28.7558022
0.0040073434  29.5911979
0.0040074904  30.2844678
0.0040076374  30.8177695
0.00400780155  31.2071352
0.00400799412  31.3702946
0.0040081617  31.2486097
0.0040083332  30.8741533
0.0040084802  30.3618003
0.0040086468  29.5851754
0.0040088428  28.4385662
0.0040090388  27.087917
0.0040092887  25.1587969
0.004009862  20.4596955
0.004010107  18.5695953
0.00401029075  17.2627612
0.00401043775  16.2998157
0.00401060925  15.2774608
0.00401078075  14.367969
0.00401095225  13.5712447
0.00401109925  12.975308
0.00401122175  12.5369944
0.0040114055  11.9719605
0.00401158925  11.5074431
0.004011773  11.1308816
0.00401195675  10.8295649
0.0040121405  10.5912821
0.0040123855  10.352345
0.0040126305  10.1823978
0.004012998  10.0166712
0.0040134145  9.90827786
0.004014664  9.77406745
0.0040178  9.63475399
0.00402516838  9.40772921
0.00403464988  9.16378361
0.00405169269  8.79531362
0.0040687355  8.49144553
0.00408918688  8.18998834
0.00410963825  7.94016634
0.00413690675  7.66702381
0.00416872  7.4118106
0.00420205468  7.19732552
0.00424365846  6.98255306
0.00429120564  6.78924721
0.00435063962  6.60101769
0.0044260875  6.41929045
0.00451560938  6.25765645
0.004625025  6.11002251
0.00476428125  5.97180822
0.004943325  5.8427368
0.00518205  5.71909669
0.00552024375  5.59453673
0.0060354123  5.45924114
0.006757635  5.31868057
0.006989994  5.29259326
0.0070775265  5.30612952
0.0071189055  5.33715863
0.007142778  5.37803997
0.00716267175  5.4436883
0.007174608  5.5115595
0.0071825655  5.57879264
0.007190523  5.67516049
0.00719649113  5.7775102
0.00720245925  5.92074717
0.007206438  6.05036753
0.00720972048  6.18699184
0.00721300294  6.36135549
0.00721519125  6.50570777
0.00721718063  6.66243251
0.00721917  6.85001983
0.00722115938  7.07714458
0.00722265141  7.2804638
0.00722404397  7.50219763
0.0072253868  7.75200491
0.00722672963  8.04548062
0.00722807246  8.39348284
0.00722896768  8.66278317
0.0072298629  8.9682276
0.00723090732  9.37944317
0.00723180254  9.7888351
0.00723269775  10.2624303
0.00723359298  10.8146089
0.00723418979  11.2354062
0.0072347866  11.7062963
0.00723548288  12.3303409
0.00723607969  12.9412481
0.0072366765  13.6361295
0.00723727332  14.4314789
0.00723787013  15.3481121
0.007238268  16.0394752
0.00723866588  16.806272
0.00723906375  17.6602225
0.00723946163  18.6156044
0.0072398595  19.6897528
0.00724025738  20.904149
0.00724055579  21.9227681
0.00724085419  23.048762
0.0072411526  24.298517
0.007241451  25.6914859
0.00724172952  27.1415639
0.00724200803  28.7596737
0.00724228654  30.5731332
0.00724256505  32.6144556
0.00724277394  34.3180692
0.00724298283  36.1904376
0.00724319171  38.2529407
0.00724340059  40.52993
0.00724360948  43.0488169
0.00724377857  45.285672
0.00724397751  48.1699863
0.00724417645  51.3574793
0.00724437539  54.8825535
0.00724457432  58.7821041
0.00724477326  63.0960861
0.0072449722  67.8659537
0.00724517114  73.1348603
0.00724535018  78.339658
0.00724550933  83.3612213
0.00724566848  88.7773182
0.00724582763  94.6088106
0.00724598678  100.875047
0.00724614593  107.593284
0.00724630508  114.778055
0.00724646423  122.440499
0.00724667311  133.233295
0.00724686708  144.005798
0.00724706104  155.489267
0.00724731966  171.861708
0.00724757828  189.346651
0.00724787669  210.689146
0.00724891116  288.642781
0.00724926527  313.798294
0.00724952787  330.832591
0.00724979046  345.963676
0.0072500451  358.404867
0.00725029974  368.290748
0.00725053847  374.979016
0.00725077719  378.98892
0.007251  380.219663
0.00725119098  379.319522
0.00725142971  375.682607
0.00725166843  369.350018
0.00725190716  360.489231
0.00725214588  349.331113
0.00725240252  335.09533
0.00725265915  318.929746
0.00725300928  294.542781
0.00725404375  216.696971
0.00725441178  190.206414
0.0072546903  171.391285
0.00725489918  158.121051
0.00725510807  145.636198
0.00725531695  133.972778
0.00725553578  122.650277
0.00725569493  114.990798
0.00725585408  107.808242
0.00725601323  101.091506
0.00725617238  94.8260986
0.00725633153  88.9948132
0.00725649068  83.5783539
0.00725664983  78.5559145
0.00725682887  73.3495872
0.00725702781  68.0783993
0.00725722675  63.3057401
0.00725742569  58.988556
0.00725762462  55.0854844
0.00725782356  51.5566523
0.0072580225  48.3652364
0.00725822144  45.4768966
0.00725839053  43.2365787
0.00725859942  40.7134037
0.00725880831  38.4320498
0.00725901719  36.3653552
0.00725922607  34.4889635
0.00725943495  32.7814123
0.00725971347  30.7348361
0.00725999198  28.9164195
0.00726027049  27.2935776
0.007260549  25.8390405
0.00726084741  24.4414336
0.00726114582  23.1873292
0.00726144422  22.0572124
0.00726174263  21.0346825
0.0072621405  19.8154067
0.00726253838  18.736642
0.00726293625  17.7769866
0.00726333413  16.9189818
0.007263732  16.1484125
0.00726412988  15.4534598
0.00726472669  14.5318405
0.0072653235  13.7319134
0.00726592032  13.0327786
0.00726651713  12.4179396
0.00726721341  11.7896533
0.00726781023  11.3153828
0.00726840704  10.89143
0.00726930225  10.3348892
0.00727019748  9.85728735
0.00727109269  9.44423239
0.00727213711  9.02909604
0.00727303233  8.72055839
0.00727437516  8.32414829
0.00727571799  7.99189884
0.00727706082  7.71055128
0.00727840365  7.47017206
0.00727984594  7.24898149
0.00728183532  6.99392788
0.00728382469  6.78428943
0.00728581407  6.60983839
0.00728790291  6.45636526
0.00729118538  6.26203262
0.00729446785  6.11030336
0.00729755138  5.99594657
0.00730153013  5.87795859
0.00730749825  5.74529494
0.0073194345  5.57570609
0.00733137075  5.47494262
0.007343307  5.40990414
0.007359222  5.35312185
0.0073830945  5.30137872
0.0074244735  5.25308345
0.00751829  5.20337994
0.00781255097  5.13202157
0.00856812  5.00939952
0.00865872  5.02514603
0.00870402  5.0615671
0.0087312  5.1118272
0.00874932  5.17278923
0.00876291  5.24688298
0.0087715925  5.31598404
0.0087798975  5.40771389
0.0087859375  5.49793102
0.0087916  5.60882868
0.0087972625  5.7565919
0.00880084875  5.87703025
0.00880424625  6.01743682
0.00880764375  6.19171944
0.00881019188  6.35146233
0.00881274  6.5437852
0.008815005  6.74975504
0.00881727  6.99769784
0.00881896875  7.21828062
0.0088206675  7.47611379
0.0088218  7.67308026
0.00882331  7.97348316
0.00882482  8.32617967
0.0088259525  8.63258077
0.008827085  8.98241535
0.0088282175  9.38430591
0.00882935  9.84913535
0.0088304825  10.3907891
0.0088312375  10.8032184
0.0088319925  11.2642489
0.0088327475  11.7818309
0.0088335025  12.3656189
0.00883414425  12.9226555
0.008834937  13.7018294
0.0088354655  14.2865358
0.008835994  14.9319441
0.0088365225  15.6468199
0.008837051  16.4415658
