E(MeV)  pendfb7/B10:102
1e-11  25.1497491
1.02999e-11  24.7809044
1.06087e-11  24.4175825
1.09269e-11  24.059421
1.12544e-11  23.706731
1.1592e-11  23.359012
1.19395e-11  23.0165739
1.22976e-11  22.6789777
1.26662e-11  22.346509
1.30462e-11  22.0186983
1.34372e-11  21.6959511
1.38403e-11  21.3776963
1.42552e-11  21.0643325
1.46827e-11  20.7553802
1.51229e-11  20.4511017
1.55765e-11  20.151098
1.60434e-11  19.8557234
1.65246e-11  19.564474
1.70199e-11  19.277678
1.75304e-11  18.9949319
1.80559e-11  18.7164608
1.85975e-11  18.4419301
1.9155e-11  18.1715819
1.97295e-11  17.9050531
2.03209e-11  17.6425657
2.09305e-11  17.3837654
2.15579e-11  17.1289504
2.22045e-11  16.8776958
2.28701e-11  16.6302875
2.35561e-11  16.3863399
2.42622e-11  16.1461419
2.49899e-11  15.9093118
2.5739e-11  15.6760909
2.6511e-11  15.4461624
2.73057e-11  15.2197241
2.81247e-11  14.9964928
2.89678e-11  14.7766432
2.98367e-11  14.5598955
3.07311e-11  14.3464614
3.16528e-11  14.1360341
3.26017e-11  13.9288031
3.35795e-11  13.7245002
3.45861e-11  13.5233039
3.56235e-11  13.3249429
3.66913e-11  13.1296097
3.77919e-11  12.9370211
3.89247e-11  12.7473767
4.00923e-11  12.5603911
4.12941e-11  12.3762715
4.25327e-11  12.1947295
4.38076e-11  12.01597
4.51216e-11  11.8397192
4.64742e-11  11.6661577
4.78681e-11  11.4950417
4.9303e-11  11.3265292
5.07818e-11  11.1603959
5.23041e-11  10.9967881
5.38729e-11  10.8354878
5.54878e-11  10.6766465
5.71521e-11  10.5200438
5.88653e-11  10.3658249
6.0631e-11  10.2137748
6.24484e-11  10.0640521
6.43215e-11  9.91643477
6.62496e-11  9.77106453
6.82368e-11  9.62773913
7.02822e-11  9.48660652
7.23903e-11  9.34745646
7.45603e-11  9.21042974
7.67967e-11  9.07532859
7.90987e-11  8.94229309
8.14712e-11  8.81112941
8.39134e-11  8.68196251
8.64304e-11  8.55461312
8.90212e-11  8.42921075
9.16913e-11  8.3055724
9.44399e-11  8.18381717
9.72725e-11  8.06377856
1.00188e-10  7.94556755
1.03193e-10  7.82903998
1.06287e-10  7.71425392
1.09475e-10  7.60109484
1.12756e-10  7.48967436
1.16139e-10  7.37979988
1.1962e-10  7.27163282
1.23208e-10  7.1649666
1.26901e-10  7.05993897
1.30707e-10  6.95639443
1.34626e-10  6.854408
1.38664e-10  6.7538554
1.4282e-10  6.65486052
1.47104e-10  6.55724449
1.51513e-10  6.46112231
1.56058e-10  6.36635126
1.60736e-10  6.27302426
1.65557e-10  6.18101558
1.7052e-10  6.09040217
1.75635e-10  6.00106149
1.80899e-10  5.91309663
1.86325e-10  5.82636974
1.91911e-10  5.74095286
1.97667e-10  5.65674391
2.03592e-10  5.57382058
2.09699e-10  5.49206186
2.15985e-10  5.41155391
2.22463e-10  5.33217877
2.29132e-10  5.25401118
2.36004e-10  5.17694928
2.43079e-10  5.10105488
2.5037e-10  5.02623099
2.57875e-10  4.95255149
2.6561e-10  4.87990506
2.73572e-10  4.80837137
2.81777e-10  4.73784456
2.90224e-10  4.66838866
2.98929e-10  4.59991228
3.0789e-10  4.53248116
3.17125e-10  4.46599599
3.26631e-10  4.40053024
3.36428e-10  4.33598226
3.46513e-10  4.27242071
3.56906e-10  4.20975317
3.67605e-10  4.14804074
3.78631e-10  4.08719602
3.89981e-10  4.02728175
4.01678e-10  3.96820885
4.13719e-10  3.91003833
4.26128e-10  3.85268499
4.38901e-10  3.79620813
4.52066e-10  3.74052539
4.65617e-10  3.68569178
4.79583e-10  3.63163031
4.93959e-10  3.57839282
5.08775e-10  3.5259052
5.24026e-10  3.47421757
5.39744e-10  3.42325769
5.55923e-10  3.3730751
5.72598e-10  3.32359871
5.89762e-10  3.27487712
6.07452e-10  3.22684052
6.25661e-10  3.1795379
6.44427e-10  3.13290055
6.63744e-10  3.08697422
6.83653e-10  3.04169455
7.04146e-10  2.99710527
7.25267e-10  2.95314309
7.47007e-10  2.90985262
7.69413e-10  2.86717153
7.92477e-10  2.82514008
8.16247e-10  2.78370125
8.40715e-10  2.74289372
8.65932e-10  2.70266061
8.91889e-10  2.66304173
9.18641e-10  2.62397975
9.46178e-10  2.58551441
9.74558e-10  2.54758996
1.003771e-09  2.51024408
1.033879e-09  2.4734236
1.064871e-09  2.43716505
1.096811e-09  2.40141621
1.129689e-09  2.3662135
1.163573e-09  2.33150579
1.198452e-09  2.29732752
1.234399e-09  2.26363037
1.271402e-09  2.23044695
1.309537e-09  2.19773023
1.348791e-09  2.16551343
1.389247e-09  2.13374988
1.430892e-09  2.10247026
1.47381e-09  2.07163131
1.517989e-09  2.04126242
1.563521e-09  2.01132072
1.610389e-09  1.98183647
1.658691e-09  1.95276692
1.708412e-09  1.92414054
1.759655e-09  1.89591715
1.812403e-09  1.86812427
1.866765e-09  1.84072222
1.922723e-09  1.81373874
1.980394e-09  1.7871345
2.039758e-09  1.76093649
2.100939e-09  1.73510704
2.163917e-09  1.70967143
2.228823e-09  1.68459363
2.295634e-09  1.6598988
2.36449e-09  1.63555122
2.435368e-09  1.61157515
2.508415e-09  1.58793652
2.583608e-09  1.56465829
2.661102e-09  1.54170757
2.740871e-09  1.51910728
2.823082e-09  1.49682472
2.907706e-09  1.47488234
2.994921e-09  1.45324864
3.084697e-09  1.43194487
3.177221e-09  1.41094086
3.272461e-09  1.39025738
3.370617e-09  1.36986484
3.471655e-09  1.34978348
3.575785e-09  1.32998459
3.682973e-09  1.31048785
3.793441e-09  1.29126539
3.907154e-09  1.27233615
4.024346e-09  1.2536733
4.14498e-09  1.23529511
4.269306e-09  1.21717557
4.397283e-09  1.19933236
4.529177e-09  1.18174027
4.664944e-09  1.16441652
4.804866e-09  1.14733653
4.948897e-09  1.13051709
5.097336e-09  1.11393431
5.250134e-09  1.09760448
5.407609e-09  1.08150438
5.569708e-09  1.06564995
5.736768e-09  1.05001849
5.908733e-09  1.03462559
6.085962e-09  1.01944919
6.268395e-09  1.00450431
6.456412e-09  0.989769645
6.649949e-09  0.975259794
6.849411e-09  0.960954011
7.054729e-09  0.946866499
7.266331e-09  0.932977143
7.484147e-09  0.919299629
7.70863e-09  0.905814484
7.939704e-09  0.892535086
8.17785e-09  0.879442458
8.42299e-09  0.866549486
8.675632e-09  0.853837889
8.935694e-09  0.841320116
9.203714e-09  0.828978426
9.479605e-09  0.81682492
9.76394e-09  0.804842348
1.0056625e-08  0.793042476
1.0358267e-08  0.781408532
1.0668767e-08  0.769951982
1.098877e-08  0.758656504
1.131817e-08  0.747533236
1.1657652e-08  0.73656632
1.2007102e-08  0.725766612
1.2367248e-08  0.715118679
1.2737969e-08  0.704633062
1.3120036e-08  0.694294802
1.3513323e-08  0.684114074
1.3918647e-08  0.674076408
1.4335873e-08  0.664191678
1.4765869e-08  0.65444581
1.5208491e-08  0.644848412
1.5664661e-08  0.635385804
1.6134225e-08  0.626067331
1.6618162e-08  0.616879695
1.7116308e-08  0.607831975
1.7629702e-08  0.598911265
1.8158171e-08  0.590126371
1.8702814e-08  0.581464768
1.926345e-08  0.57293501
1.9841246e-08  0.564524934
2.0436008e-08  0.556242845
2.1048973e-08  0.548076947
2.1679938e-08  0.540035284
2.2330215e-08  0.53210642
2.2999587e-08  0.524298172
2.3689445e-08  0.51659943
2.4399561e-08  0.509017787
2.5268741e-08  0.500176011
2.53e-08  0.499866533
2.6058858e-08  0.492525007
2.684e-08  0.485295151
2.7645049e-08  0.478166678
2.8473738e-08  0.471146636
2.9327791e-08  0.464225044
3.0206922e-08  0.457408756
3.111296e-08  0.450688088
3.2045604e-08  0.444069686
3.3006792e-08  0.437544153
3.3996206e-08  0.431117949
3.5015901e-08  0.424781957
3.6065539e-08  0.418542447
3.7147303e-08  0.412390566
3.8260833e-08  0.40633241
3.9408443e-08  0.400359381
4.0589752e-08  0.394477399
4.1807217e-08  0.388678115
4.3060432e-08  0.382967274
4.4352004e-08  0.377336771
4.5681502e-08  0.371792186
4.705169e-08  0.366325639
4.8462114e-08  0.360942547
4.9915706e-08  0.355635264
5.1411981e-08  0.350409043
5.2954052e-08  0.345256455
5.4541406e-08  0.340182596
5.6177342e-08  0.33518025
5.7861316e-08  0.330254367
5.9596832e-08  0.325397939
6.1383309e-08  0.320615759
6.3224464e-08  0.31590103
6.5119683e-08  0.311258405
6.7072909e-08  0.306681271
6.9083489e-08  0.302174153
7.1155607e-08  0.297730634
7.328857e-08  0.2933551
7.5486817e-08  0.289041316
7.7749613e-08  0.28479354
8.0081665e-08  0.28060572
8.2482197e-08  0.276481989
8.49562e-08  0.272416471
8.7502851e-08  0.268413164
9.0127446e-08  0.264466371
9.2829111e-08  0.260579971
9.5613464e-08  0.256748422
9.8479577e-08  0.252975495
1.01433412e-07  0.249255804
1.04473985e-07  0.245593004
1.07607619e-07  0.241981869
1.1083327e-07  0.238425949
1.14157646e-07  0.234920163
1.17579641e-07  0.231467962
1.21106371e-07  0.228064422
1.24736661e-07  0.224712889
1.28478062e-07  0.221408587
1.32329326e-07  0.218154775
1.36298464e-07  0.214946816
1.40384153e-07  0.211787875
1.4459489e-07  0.20867346
1.48929273e-07  0.205606639
1.53396316e-07  0.202583054
1.57994531e-07  0.199605696
1.62733481e-07  0.196670314
1.67611588e-07  0.193780092
1.72638996e-07  0.190930356
1.7781403e-07  0.188124199
1.83147454e-07  0.185357623
1.8863749e-07  0.182633355
1.94295557e-07  0.179947513
2.0011977e-07  0.177302744
2.06122241e-07  0.174695277
2.12300971e-07  0.172127684
2.18668809e-07  0.169596305
2.25223636e-07  0.167103638
2.31979082e-07  0.164646131
2.38932897e-07  0.16222621
2.46099545e-07  0.159840428
2.53476636e-07  0.157491141
2.61079514e-07  0.155175
2.68905645e-07  0.152894291
2.76971307e-07  0.150645762
2.85273811e-07  0.148431631
2.93830426e-07  0.146248739
3.02638301e-07  0.144099238
3.11715753e-07  0.141980061
3.21059758e-07  0.1398933
3.30689751e-07  0.13783598
3.40602522e-07  0.135810132
3.50818688e-07  0.133812872
3.61334845e-07  0.131846168
3.72172865e-07  0.129907217
3.83329135e-07  0.127997926
3.9482686e-07  0.126115565
4.06662208e-07  0.124261984
4.18859794e-07  0.122434535
4.31415555e-07  0.120635021
4.44355602e-07  0.118860879
4.57675626e-07  0.117113866
4.71403329e-07  0.115391498
4.85534136e-07  0.113695479
5.00097438e-07  0.112023393
5.15088382e-07  0.110376889
5.30538145e-07  0.108753621
5.46441581e-07  0.10715519
5.62831765e-07  0.105579319
5.79703235e-07  0.10402756
5.97091082e-07  0.102497697
6.14989512e-07  0.100991233
6.33435749e-07  0.099506016
6.52423648e-07  0.098043504
6.71992699e-07  0.096601614
6.92136383e-07  0.095181775
7.12896594e-07  0.093781979
7.34266415e-07  0.092403624
7.5629029e-07  0.091044749
7.78960882e-07  0.089706681
8.02325342e-07  0.08838748
8.26375882e-07  0.087088418
8.51162526e-07  0.085807629
8.76677012e-07  0.084546391
9.02972407e-07  0.083302943
9.30039949e-07  0.082078545
9.57935933e-07  0.080871467
9.86651065e-07  0.079682891
1.01195589e-06  0.078677742
1.04050974e-06  0.077587913
1.06986929e-06  0.076513191
1.10005725e-06  0.07545336
1.13109702e-06  0.074408193
1.16301262e-06  0.073377477
1.19582876e-06  0.072361026
1.22957087e-06  0.07135869
1.26426505e-06  0.070370318
1.29993819e-06  0.069395722
1.33661789e-06  0.068434664
1.37433257e-06  0.067486895
1.41311143e-06  0.06655221
1.45298448e-06  0.065630477
1.5150601e-06  0.064268801
1.57948201e-06  0.062941629
1.64696196e-06  0.061635686
1.71699247e-06  0.060362291
1.79034725e-06  0.059109313
1.86647465e-06  0.057888328
1.94621574e-06  0.056687472
2.02897083e-06  0.055516594
2.11565421e-06  0.054364001
2.20561399e-06  0.053240523
2.29984408e-06  0.052135698
2.3976358e-06  0.051059152
2.5000696e-06  0.050000339
2.60637512e-06  0.04896801
2.71772686e-06  0.047951444
2.83328738e-06  0.046960427
2.95433346e-06  0.045986371
3.12340751e-06  0.044722062
3.30215753e-06  0.043492792
3.49113727e-06  0.042297004
3.69093216e-06  0.04113219
3.90216115e-06  0.040000989
4.1254786e-06  0.038901191
4.36157631e-06  0.037831201
4.67533642e-06  0.036537559
5.01263774e-06  0.035282578
5.37323346e-06  0.034073827
5.76088444e-06  0.032907987
6.17530702e-06  0.031782517
6.62082346e-06  0.030694609
7.19723551e-06  0.029435037
7.82383027e-06  0.028226394
8.50497668e-06  0.027075244
9.24542401e-06  0.025969582
1.0050335e-05  0.024905117
1.10773148e-05  0.023711261
1.22115986e-05  0.022582257
1.34594242e-05  0.021506129
1.48376288e-05  0.020482983
1.65845151e-05  0.019366865
1.80283709e-05  0.01858418
1.95979295e-05  0.017819745
2.16005172e-05  0.016965449
2.34810686e-05  0.016273644
2.55253416e-05  0.015606502
2.774759e-05  0.014965792
3.01633085e-05  0.014356099
3.32519408e-05  0.013664804
3.87471795e-05  0.012659053
4.33090214e-05  0.011970648
4.70795255e-05  0.011482915
5.11782914e-05  0.011012163
5.56338979e-05  0.010560018
5.96475957e-05  0.01019745
6.66701171e-05  0.009641805
7.76880669e-05  0.008932341
8.56430918e-05  0.008503761
9.30992203e-05  0.008157419
0.000101204483  0.007822827
0.000110015393  0.007501615
0.000119593386  0.007195561
0.000131813873  0.006850403
0.000153627259  0.00634437
0.000171714337  0.006000222
0.000186663869  0.005755947
0.000202914915  0.005519874
0.000220580784  0.005293217
0.000239784653  0.00507735
0.000264286721  0.004833631
0.000308022543  0.004476647
0.000344287121  0.0042338
0.000401048895  0.003921867
0.000442115098  0.003735535
0.000473919673  0.003607156
0.000529715904  0.003411154
0.000617376611  0.00315936
0.000688341928  0.002991502
0.000748269305  0.002869698
0.000809381631  0.00275865
0.000875583657  0.002651563
0.000951812388  0.002543292
0.00105686177  0.002412719
0.00123976986  0.002227698
0.00137668384  0.002113376
0.00147860534  0.002039192
0.00160733343  0.001955522
0.00174726865  0.001875221
0.00189938669  0.001798623
0.00211372353  0.001704487
0.00247953973  0.001573777
0.00275336772  0.001493013
0.0029572107  0.001440605
0.00321466687  0.001381495
0.0034945373  0.001324766
0.00379877339  0.001270653
0.00422744708  0.00120415
0.00495907946  0.001111809
0.00550673542  0.001054752
0.00591442139  0.001017728
0.00642933374  0.000975969
0.00698907461  0.000935893
0.00759754678  0.000897664
0.00845489418  0.000850683
0.00991815891  0.000785447
0.0110134708  0.000745139
0.0118288428  0.000718983
0.0128586675  0.000689483
0.0140471794  0.000659609
0.0152358287  0.000633362
0.0169097883  0.000600972
0.0198363178  0.000554886
0.0220269417  0.00052641
0.0236576856  0.000507932
0.025717335  0.000487091
0.0280943589  0.000465987
0.0304716575  0.000447444
0.0338195767  0.000424562
0.0396726356  0.000392004
0.0440538833  0.000371887
0.047315371  0.000358833
0.0514346698  0.000344109
0.0561887176  0.0003292
0.0609433149  0.000316101
0.0676391532  0.000299935
0.0716814009  0.000291397
0.0793452711  0.000276935
0.0881077667  0.000262723
0.0946307421  0.000253501
0.103098871  0.00024284
0.112377435  0.000232566
0.12188663  0.000223312
0.135278308  0.000211892
0.143362803  0.00020586
0.158690543  0.000195643
0.176215533  0.000185603
0.189261484  0.000179088
0.206197742  0.000171556
0.22475487  0.000164299
0.24377326  0.000157761
0.270556614  0.000149693
0.286725605  0.000145432
0.317381085  0.000138214
0.352431067  0.00013112
0.378522969  0.000126518
0.412395484  0.000121196
0.448298832  0.000116227
0.5  0.000109998
0.999829026  3.76602e-08
0.999865664  2.97464e-08
0.999890089  2.46205e-08
0.999908408  2.09205e-08
0.999923673  1.79746e-08
0.999935886  1.57327e-08
0.999945045  1.41306e-08
0.999954205  1.26046e-08
0.999963364  1.11621e-08
0.99996947  1.02499e-08
0.999975576  9.37916e-09
0.999983209  8.35096e-09
0.999989315  7.57799e-09
0.999995421  6.84983e-09
1.00000173  6.14498e-09
1.00000689  5.60445e-09
1.00001206  5.09519e-09
1.00001723  4.61797e-09
1.0000224  4.17232e-09
1.00002756  3.75842e-09
1.00003273  3.37389e-09
1.00003618  3.13365e-09
1.00003962  2.90682e-09
1.00004307  2.69176e-09
1.00004651  2.48939e-09
1.00004996  2.29816e-09
1.0000534  2.11883e-09
1.00005685  1.94997e-09
1.00006029  1.79217e-09
1.00006374  1.6441e-09
1.00006718  1.50621e-09
1.00007063  1.3773e-09
1.00007407  1.25768e-09
1.00007752  1.14625e-09
1.00008096  1.04324e-09
1.00008441  9.4763e-10
1.00008785  8.5958e-10
1.00009044  7.9783e-10
1.00009302  7.4001e-10
1.0000956  6.8572e-10
1.00009819  6.3461e-10
1.00010077  5.8691e-10
1.00010335  5.4227e-10
1.00010593  5.0052e-10
1.00010851  4.6154e-10
1.0001111  4.2503e-10
1.00011368  3.9114e-10
1.00011626  3.596e-10
1.00011885  3.3015e-10
1.00012143  3.0291e-10
1.00012401  2.7764e-10
1.0001266  2.5413e-10
1.00012918  2.3245e-10
1.00013177  2.1233e-10
1.00013435  1.9381e-10
1.00013693  1.7673e-10
1.00013952  1.6093e-10
1.0001421  1.4644e-10
1.00014468  1.3312e-10
1.00014727  1.2083e-10
1.00014985  1.0961e-10
1.00015244  9.9282e-11
1.00015502  8.9868e-11
1.00015846  7.856e-11
1.00016534  5.9693e-11
1.00022045  4.9985e-12
1.00044089  1.2318e-18
1.00088177  0
20  0
